# OpenSignals Text File Format
# {"20:16:04:12:00:92": {"sensor": ["ECGBIT", "EDABITREV"], "device name": "79", "column": ["nSeq", "I1", "I2", "O1", "O2", "A2", "A3"], "sync interval": 2, "time": "12:13:37.71", "comments": "", "device connection": "BTH20:16:04:12:00:92", "channels": [2, 3], "keywords": "", "convertedValues": 0, "mode": 0, "digital IO": [0, 0, 1, 1], "firmware version": 1281, "device": "bitalino_rev", "position": 0, "sampling rate": 100, "label": ["A2", "A3"], "resolution": [4, 1, 1, 1, 1, 10, 10], "date": "2019-4-4", "special": [{}, {}]}}
# EndOfHeader
0	0	0	0	0	524	251	
1	0	0	0	0	493	251	
2	0	0	0	0	511	251	
3	0	0	0	0	497	251	
4	0	0	0	0	510	251	
5	0	0	0	0	527	251	
6	0	0	0	0	522	251	
7	0	0	0	0	536	251	
8	0	0	0	0	539	251	
9	0	0	0	0	550	250	
10	0	0	0	0	543	251	
11	0	0	0	0	550	250	
12	0	0	0	0	571	251	
13	0	0	0	0	572	251	
14	0	0	0	0	569	250	
15	0	0	0	0	552	250	
0	0	0	0	0	540	251	
1	0	0	0	0	485	250	
2	0	0	0	0	467	250	
3	0	0	0	0	461	250	
4	0	0	0	0	462	250	
5	0	0	0	0	470	250	
6	0	0	0	0	458	251	
7	0	0	0	0	453	250	
8	0	0	0	0	472	250	
9	0	0	0	0	481	250	
10	0	0	0	0	486	250	
11	0	0	0	0	480	250	
12	0	0	0	0	506	250	
13	0	0	0	0	485	250	
14	0	0	0	0	512	250	
15	0	0	0	0	503	250	
0	0	0	0	0	501	250	
1	0	0	0	0	503	250	
2	0	0	0	0	519	250	
3	0	0	0	0	492	250	
4	0	0	0	0	518	250	
5	0	0	0	0	519	250	
6	0	0	0	0	513	249	
7	0	0	0	0	508	250	
8	0	0	0	0	502	250	
9	0	0	0	0	495	250	
10	0	0	0	0	515	250	
11	0	0	0	0	510	250	
12	0	0	0	0	497	250	
13	0	0	0	0	515	250	
14	0	0	0	0	518	249	
15	0	0	0	0	512	250	
0	0	0	0	0	492	250	
1	0	0	0	0	524	250	
2	0	0	0	0	511	249	
3	0	0	0	0	512	249	
4	0	0	0	0	499	249	
5	0	0	0	0	499	250	
6	0	0	0	0	516	250	
7	0	0	0	0	533	249	
8	0	0	0	0	534	249	
9	0	0	0	0	538	249	
10	0	0	0	0	549	249	
11	0	0	0	0	519	249	
12	0	0	0	0	531	249	
13	0	0	0	0	531	250	
14	0	0	0	0	506	249	
15	0	0	0	0	499	250	
0	0	0	0	0	500	249	
1	0	0	0	0	498	249	
2	0	0	0	0	499	249	
3	0	0	0	0	504	249	
4	0	0	0	0	581	249	
5	0	0	0	0	640	249	
6	0	0	0	0	652	249	
7	0	0	0	0	504	249	
8	0	0	0	0	360	249	
9	0	0	0	0	459	249	
10	0	0	0	0	490	249	
11	0	0	0	0	502	249	
12	0	0	0	0	480	249	
13	0	0	0	0	475	249	
14	0	0	0	0	496	249	
15	0	0	0	0	487	249	
0	0	0	0	0	514	249	
1	0	0	0	0	519	249	
2	0	0	0	0	527	249	
3	0	0	0	0	523	249	
4	0	0	0	0	520	249	
5	0	0	0	0	505	249	
6	0	0	0	0	524	249	
7	0	0	0	0	549	249	
8	0	0	0	0	532	249	
9	0	0	0	0	532	249	
10	0	0	0	0	551	249	
11	0	0	0	0	562	249	
12	0	0	0	0	562	248	
13	0	0	0	0	563	249	
14	0	0	0	0	579	249	
15	0	0	0	0	567	248	
0	0	0	0	0	524	249	
1	0	0	0	0	497	248	
2	0	0	0	0	446	249	
3	0	0	0	0	476	249	
4	0	0	0	0	448	249	
5	0	0	0	0	433	249	
6	0	0	0	0	466	249	
7	0	0	0	0	449	249	
8	0	0	0	0	467	249	
9	0	0	0	0	460	249	
10	0	0	0	0	487	248	
11	0	0	0	0	489	248	
12	0	0	0	0	458	248	
13	0	0	0	0	495	248	
14	0	0	0	0	506	248	
15	0	0	0	0	511	248	
0	0	0	0	0	505	248	
1	0	0	0	0	514	248	
2	0	0	0	0	515	248	
3	0	0	0	0	494	248	
4	0	0	0	0	491	248	
5	0	0	0	0	518	248	
6	0	0	0	0	508	248	
7	0	0	0	0	507	248	
8	0	0	0	0	507	248	
9	0	0	0	0	499	248	
10	0	0	0	0	497	248	
11	0	0	0	0	516	248	
12	0	0	0	0	498	248	
13	0	0	0	0	508	248	
14	0	0	0	0	512	248	
15	0	0	0	0	480	248	
0	0	0	0	0	513	248	
1	0	0	0	0	513	248	
2	0	0	0	0	509	248	
3	0	0	0	0	510	248	
4	0	0	0	0	516	248	
5	0	0	0	0	523	248	
6	0	0	0	0	512	248	
7	0	0	0	0	515	248	
8	0	0	0	0	519	248	
9	0	0	0	0	530	248	
10	0	0	0	0	529	248	
11	0	0	0	0	546	248	
12	0	0	0	0	525	248	
13	0	0	0	0	516	248	
14	0	0	0	0	477	248	
15	0	0	0	0	526	248	
0	0	0	0	0	499	248	
1	0	0	0	0	485	248	
2	0	0	0	0	533	248	
3	0	0	0	0	560	248	
4	0	0	0	0	616	248	
5	0	0	0	0	678	248	
6	0	0	0	0	512	248	
7	0	0	0	0	426	248	
8	0	0	0	0	461	248	
9	0	0	0	0	478	248	
10	0	0	0	0	472	248	
11	0	0	0	0	487	247	
12	0	0	0	0	501	248	
13	0	0	0	0	470	248	
14	0	0	0	0	492	248	
15	0	0	0	0	508	248	
0	0	0	0	0	505	248	
1	0	0	0	0	505	248	
2	0	0	0	0	511	247	
3	0	0	0	0	503	248	
4	0	0	0	0	514	247	
5	0	0	0	0	508	247	
6	0	0	0	0	524	247	
7	0	0	0	0	540	247	
8	0	0	0	0	538	248	
9	0	0	0	0	553	248	
10	0	0	0	0	559	247	
11	0	0	0	0	564	247	
12	0	0	0	0	558	247	
13	0	0	0	0	548	247	
14	0	0	0	0	553	247	
15	0	0	0	0	537	247	
0	0	0	0	0	504	248	
1	0	0	0	0	499	247	
2	0	0	0	0	484	248	
3	0	0	0	0	452	247	
4	0	0	0	0	458	247	
5	0	0	0	0	450	247	
6	0	0	0	0	470	247	
7	0	0	0	0	480	247	
8	0	0	0	0	493	247	
9	0	0	0	0	476	247	
10	0	0	0	0	479	247	
11	0	0	0	0	501	247	
12	0	0	0	0	493	247	
13	0	0	0	0	496	247	
14	0	0	0	0	487	247	
15	0	0	0	0	494	247	
0	0	0	0	0	495	247	
1	0	0	0	0	511	247	
2	0	0	0	0	503	247	
3	0	0	0	0	506	247	
4	0	0	0	0	504	247	
5	0	0	0	0	516	247	
6	0	0	0	0	518	247	
7	0	0	0	0	496	247	
8	0	0	0	0	515	247	
9	0	0	0	0	500	247	
10	0	0	0	0	495	247	
11	0	0	0	0	508	247	
12	0	0	0	0	516	247	
13	0	0	0	0	512	247	
14	0	0	0	0	504	247	
15	0	0	0	0	523	247	
0	0	0	0	0	492	247	
1	0	0	0	0	502	247	
2	0	0	0	0	513	248	
3	0	0	0	0	502	247	
4	0	0	0	0	525	247	
5	0	0	0	0	501	247	
6	0	0	0	0	513	248	
7	0	0	0	0	512	247	
8	0	0	0	0	540	248	
9	0	0	0	0	538	248	
10	0	0	0	0	535	248	
11	0	0	0	0	517	248	
12	0	0	0	0	538	247	
13	0	0	0	0	515	248	
14	0	0	0	0	497	248	
15	0	0	0	0	481	248	
0	0	0	0	0	508	248	
1	0	0	0	0	495	248	
2	0	0	0	0	516	248	
3	0	0	0	0	522	248	
4	0	0	0	0	567	248	
5	0	0	0	0	672	247	
6	0	0	0	0	643	248	
7	0	0	0	0	415	248	
8	0	0	0	0	444	248	
9	0	0	0	0	465	248	
10	0	0	0	0	470	248	
11	0	0	0	0	465	248	
12	0	0	0	0	471	248	
13	0	0	0	0	473	248	
14	0	0	0	0	513	248	
15	0	0	0	0	483	249	
0	0	0	0	0	503	248	
1	0	0	0	0	492	249	
2	0	0	0	0	511	249	
3	0	0	0	0	520	249	
4	0	0	0	0	516	249	
5	0	0	0	0	516	249	
6	0	0	0	0	501	249	
7	0	0	0	0	541	249	
8	0	0	0	0	540	249	
9	0	0	0	0	547	249	
10	0	0	0	0	554	249	
11	0	0	0	0	548	249	
12	0	0	0	0	568	249	
13	0	0	0	0	547	250	
14	0	0	0	0	556	250	
15	0	0	0	0	523	250	
0	0	0	0	0	534	250	
1	0	0	0	0	487	250	
2	0	0	0	0	463	250	
3	0	0	0	0	464	250	
4	0	0	0	0	454	250	
5	0	0	0	0	464	250	
6	0	0	0	0	472	251	
7	0	0	0	0	462	251	
8	0	0	0	0	468	251	
9	0	0	0	0	499	251	
10	0	0	0	0	484	251	
11	0	0	0	0	474	251	
12	0	0	0	0	483	251	
13	0	0	0	0	491	251	
14	0	0	0	0	506	251	
15	0	0	0	0	496	251	
0	0	0	0	0	502	251	
1	0	0	0	0	481	252	
2	0	0	0	0	504	252	
3	0	0	0	0	508	252	
4	0	0	0	0	514	252	
5	0	0	0	0	485	252	
6	0	0	0	0	513	252	
7	0	0	0	0	511	252	
8	0	0	0	0	515	252	
9	0	0	0	0	498	252	
10	0	0	0	0	503	252	
11	0	0	0	0	512	252	
12	0	0	0	0	513	253	
13	0	0	0	0	528	253	
14	0	0	0	0	512	253	
15	0	0	0	0	491	253	
0	0	0	0	0	533	253	
1	0	0	0	0	518	253	
2	0	0	0	0	510	253	
3	0	0	0	0	502	253	
4	0	0	0	0	519	253	
5	0	0	0	0	519	254	
6	0	0	0	0	529	254	
7	0	0	0	0	519	254	
8	0	0	0	0	524	254	
9	0	0	0	0	522	254	
10	0	0	0	0	522	254	
11	0	0	0	0	516	254	
12	0	0	0	0	543	254	
13	0	0	0	0	543	254	
14	0	0	0	0	538	254	
15	0	0	0	0	535	254	
0	0	0	0	0	503	255	
1	0	0	0	0	510	255	
2	0	0	0	0	499	255	
3	0	0	0	0	508	255	
4	0	0	0	0	521	255	
5	0	0	0	0	508	255	
6	0	0	0	0	545	255	
7	0	0	0	0	621	255	
8	0	0	0	0	689	255	
9	0	0	0	0	544	255	
10	0	0	0	0	386	255	
11	0	0	0	0	447	255	
12	0	0	0	0	474	255	
13	0	0	0	0	508	255	
14	0	0	0	0	487	255	
15	0	0	0	0	500	255	
0	0	0	0	0	506	256	
1	0	0	0	0	519	256	
2	0	0	0	0	513	255	
3	0	0	0	0	499	256	
4	0	0	0	0	514	256	
5	0	0	0	0	507	256	
6	0	0	0	0	516	256	
7	0	0	0	0	548	256	
8	0	0	0	0	510	256	
9	0	0	0	0	531	256	
10	0	0	0	0	533	257	
11	0	0	0	0	528	256	
12	0	0	0	0	555	257	
13	0	0	0	0	559	257	
14	0	0	0	0	558	257	
15	0	0	0	0	564	257	
0	0	0	0	0	599	257	
1	0	0	0	0	543	257	
2	0	0	0	0	519	257	
3	0	0	0	0	504	257	
4	0	0	0	0	488	257	
5	0	0	0	0	450	257	
6	0	0	0	0	443	257	
7	0	0	0	0	462	257	
8	0	0	0	0	469	257	
9	0	0	0	0	464	257	
10	0	0	0	0	467	258	
11	0	0	0	0	475	257	
12	0	0	0	0	460	258	
13	0	0	0	0	480	258	
14	0	0	0	0	494	258	
15	0	0	0	0	492	258	
0	0	0	0	0	511	258	
1	0	0	0	0	500	258	
2	0	0	0	0	502	258	
3	0	0	0	0	515	258	
4	0	0	0	0	532	258	
5	0	0	0	0	494	258	
6	0	0	0	0	527	258	
7	0	0	0	0	508	258	
8	0	0	0	0	516	258	
9	0	0	0	0	498	258	
10	0	0	0	0	511	259	
11	0	0	0	0	521	258	
12	0	0	0	0	527	259	
13	0	0	0	0	512	259	
14	0	0	0	0	543	258	
15	0	0	0	0	497	259	
0	0	0	0	0	503	259	
1	0	0	0	0	513	259	
2	0	0	0	0	512	259	
3	0	0	0	0	528	259	
4	0	0	0	0	518	259	
5	0	0	0	0	514	259	
6	0	0	0	0	511	259	
7	0	0	0	0	549	259	
8	0	0	0	0	523	259	
9	0	0	0	0	542	259	
10	0	0	0	0	518	259	
11	0	0	0	0	515	259	
12	0	0	0	0	518	259	
13	0	0	0	0	478	259	
14	0	0	0	0	515	259	
15	0	0	0	0	492	259	
0	0	0	0	0	513	259	
1	0	0	0	0	529	259	
2	0	0	0	0	587	259	
3	0	0	0	0	655	259	
4	0	0	0	0	592	259	
5	0	0	0	0	398	259	
6	0	0	0	0	426	259	
7	0	0	0	0	463	259	
8	0	0	0	0	488	259	
9	0	0	0	0	493	259	
10	0	0	0	0	495	259	
11	0	0	0	0	498	259	
12	0	0	0	0	517	259	
13	0	0	0	0	500	259	
14	0	0	0	0	537	259	
15	0	0	0	0	505	259	
0	0	0	0	0	516	259	
1	0	0	0	0	500	259	
2	0	0	0	0	510	259	
3	0	0	0	0	527	259	
4	0	0	0	0	546	259	
5	0	0	0	0	521	259	
6	0	0	0	0	536	259	
7	0	0	0	0	533	259	
8	0	0	0	0	560	259	
9	0	0	0	0	536	259	
10	0	0	0	0	568	260	
11	0	0	0	0	572	259	
12	0	0	0	0	551	259	
13	0	0	0	0	541	259	
14	0	0	0	0	510	259	
15	0	0	0	0	487	259	
0	0	0	0	0	468	259	
1	0	0	0	0	432	259	
2	0	0	0	0	465	259	
3	0	0	0	0	451	259	
4	0	0	0	0	446	260	
5	0	0	0	0	473	259	
6	0	0	0	0	472	259	
7	0	0	0	0	461	259	
8	0	0	0	0	475	260	
9	0	0	0	0	486	259	
10	0	0	0	0	505	259	
11	0	0	0	0	500	260	
12	0	0	0	0	522	259	
13	0	0	0	0	517	260	
14	0	0	0	0	515	259	
15	0	0	0	0	518	259	
0	0	0	0	0	510	259	
1	0	0	0	0	500	259	
2	0	0	0	0	514	259	
3	0	0	0	0	515	259	
4	0	0	0	0	502	259	
5	0	0	0	0	511	259	
6	0	0	0	0	504	259	
7	0	0	0	0	524	259	
8	0	0	0	0	507	259	
9	0	0	0	0	486	259	
10	0	0	0	0	510	259	
11	0	0	0	0	508	259	
12	0	0	0	0	515	259	
13	0	0	0	0	480	259	
14	0	0	0	0	527	259	
15	0	0	0	0	500	259	
0	0	0	0	0	515	259	
1	0	0	0	0	523	259	
2	0	0	0	0	529	259	
3	0	0	0	0	520	259	
4	0	0	0	0	551	259	
5	0	0	0	0	526	259	
6	0	0	0	0	524	259	
7	0	0	0	0	520	259	
8	0	0	0	0	497	259	
9	0	0	0	0	502	259	
10	0	0	0	0	519	259	
11	0	0	0	0	505	259	
12	0	0	0	0	519	259	
13	0	0	0	0	538	259	
14	0	0	0	0	604	259	
15	0	0	0	0	661	259	
0	0	0	0	0	597	259	
1	0	0	0	0	399	259	
2	0	0	0	0	448	259	
3	0	0	0	0	467	259	
4	0	0	0	0	496	259	
5	0	0	0	0	466	259	
6	0	0	0	0	475	259	
7	0	0	0	0	473	259	
8	0	0	0	0	504	259	
9	0	0	0	0	505	259	
10	0	0	0	0	524	259	
11	0	0	0	0	512	258	
12	0	0	0	0	499	259	
13	0	0	0	0	527	259	
14	0	0	0	0	504	258	
15	0	0	0	0	518	258	
0	0	0	0	0	533	258	
1	0	0	0	0	508	258	
2	0	0	0	0	545	258	
3	0	0	0	0	526	258	
4	0	0	0	0	565	259	
5	0	0	0	0	535	258	
6	0	0	0	0	554	258	
7	0	0	0	0	560	258	
8	0	0	0	0	562	258	
9	0	0	0	0	527	258	
10	0	0	0	0	518	258	
11	0	0	0	0	465	258	
12	0	0	0	0	475	258	
13	0	0	0	0	449	258	
14	0	0	0	0	459	258	
15	0	0	0	0	469	258	
0	0	0	0	0	479	258	
1	0	0	0	0	460	258	
2	0	0	0	0	480	258	
3	0	0	0	0	482	258	
4	0	0	0	0	486	258	
5	0	0	0	0	479	258	
6	0	0	0	0	507	258	
7	0	0	0	0	500	258	
8	0	0	0	0	496	258	
9	0	0	0	0	487	258	
10	0	0	0	0	499	258	
11	0	0	0	0	505	258	
12	0	0	0	0	511	258	
13	0	0	0	0	498	257	
14	0	0	0	0	505	258	
15	0	0	0	0	510	258	
0	0	0	0	0	509	258	
1	0	0	0	0	508	258	
2	0	0	0	0	513	258	
3	0	0	0	0	510	258	
4	0	0	0	0	504	258	
5	0	0	0	0	504	258	
6	0	0	0	0	530	258	
7	0	0	0	0	522	258	
8	0	0	0	0	488	258	
9	0	0	0	0	514	258	
10	0	0	0	0	505	258	
11	0	0	0	0	508	258	
12	0	0	0	0	506	258	
13	0	0	0	0	518	259	
14	0	0	0	0	525	258	
15	0	0	0	0	494	258	
0	0	0	0	0	500	259	
1	0	0	0	0	494	259	
2	0	0	0	0	512	259	
3	0	0	0	0	520	259	
4	0	0	0	0	508	259	
5	0	0	0	0	508	259	
6	0	0	0	0	543	259	
7	0	0	0	0	527	259	
8	0	0	0	0	531	259	
9	0	0	0	0	513	259	
10	0	0	0	0	487	259	
11	0	0	0	0	492	259	
12	0	0	0	0	497	259	
13	0	0	0	0	504	259	
14	0	0	0	0	497	259	
15	0	0	0	0	531	259	
0	0	0	0	0	569	260	
1	0	0	0	0	667	259	
2	0	0	0	0	633	260	
3	0	0	0	0	433	260	
4	0	0	0	0	457	260	
5	0	0	0	0	463	260	
6	0	0	0	0	466	260	
7	0	0	0	0	429	260	
8	0	0	0	0	476	260	
9	0	0	0	0	477	261	
10	0	0	0	0	490	261	
11	0	0	0	0	488	261	
12	0	0	0	0	499	261	
13	0	0	0	0	497	261	
14	0	0	0	0	496	261	
15	0	0	0	0	493	261	
0	0	0	0	0	503	261	
1	0	0	0	0	514	261	
2	0	0	0	0	512	261	
3	0	0	0	0	528	262	
4	0	0	0	0	535	261	
5	0	0	0	0	524	262	
6	0	0	0	0	567	262	
7	0	0	0	0	557	262	
8	0	0	0	0	543	262	
9	0	0	0	0	553	262	
10	0	0	0	0	562	262	
11	0	0	0	0	532	262	
12	0	0	0	0	510	262	
13	0	0	0	0	495	263	
14	0	0	0	0	467	263	
15	0	0	0	0	456	262	
0	0	0	0	0	470	263	
1	0	0	0	0	460	263	
2	0	0	0	0	460	263	
3	0	0	0	0	467	263	
4	0	0	0	0	494	263	
5	0	0	0	0	470	263	
6	0	0	0	0	498	263	
7	0	0	0	0	484	263	
8	0	0	0	0	498	263	
9	0	0	0	0	501	263	
10	0	0	0	0	498	263	
11	0	0	0	0	501	263	
12	0	0	0	0	508	264	
13	0	0	0	0	503	263	
14	0	0	0	0	527	264	
15	0	0	0	0	494	264	
0	0	0	0	0	512	264	
1	0	0	0	0	507	264	
2	0	0	0	0	522	264	
3	0	0	0	0	527	264	
4	0	0	0	0	527	264	
5	0	0	0	0	516	264	
6	0	0	0	0	504	264	
7	0	0	0	0	533	264	
8	0	0	0	0	523	264	
9	0	0	0	0	511	265	
10	0	0	0	0	512	265	
11	0	0	0	0	519	265	
12	0	0	0	0	512	265	
13	0	0	0	0	511	265	
14	0	0	0	0	527	265	
15	0	0	0	0	514	265	
0	0	0	0	0	512	265	
1	0	0	0	0	515	265	
2	0	0	0	0	518	265	
3	0	0	0	0	509	265	
4	0	0	0	0	526	265	
5	0	0	0	0	520	266	
6	0	0	0	0	524	265	
7	0	0	0	0	508	266	
8	0	0	0	0	518	266	
9	0	0	0	0	520	266	
10	0	0	0	0	509	266	
11	0	0	0	0	524	266	
12	0	0	0	0	508	266	
13	0	0	0	0	513	266	
14	0	0	0	0	516	266	
15	0	0	0	0	528	267	
0	0	0	0	0	538	266	
1	0	0	0	0	521	267	
2	0	0	0	0	514	266	
3	0	0	0	0	542	266	
4	0	0	0	0	536	267	
5	0	0	0	0	493	267	
6	0	0	0	0	499	267	
7	0	0	0	0	512	267	
8	0	0	0	0	484	267	
9	0	0	0	0	500	267	
10	0	0	0	0	551	267	
11	0	0	0	0	580	267	
12	0	0	0	0	671	267	
13	0	0	0	0	615	267	
14	0	0	0	0	435	267	
15	0	0	0	0	453	267	
0	0	0	0	0	504	267	
1	0	0	0	0	465	267	
2	0	0	0	0	471	267	
3	0	0	0	0	489	268	
4	0	0	0	0	484	268	
5	0	0	0	0	510	267	
6	0	0	0	0	495	267	
7	0	0	0	0	509	268	
8	0	0	0	0	498	268	
9	0	0	0	0	512	267	
10	0	0	0	0	509	268	
11	0	0	0	0	487	268	
12	0	0	0	0	540	268	
13	0	0	0	0	514	268	
14	0	0	0	0	530	268	
15	0	0	0	0	526	268	
0	0	0	0	0	556	267	
1	0	0	0	0	557	268	
2	0	0	0	0	558	268	
3	0	0	0	0	583	268	
4	0	0	0	0	590	268	
5	0	0	0	0	562	268	
6	0	0	0	0	541	268	
7	0	0	0	0	514	268	
8	0	0	0	0	495	268	
9	0	0	0	0	489	268	
10	0	0	0	0	467	268	
11	0	0	0	0	456	268	
12	0	0	0	0	466	268	
13	0	0	0	0	478	268	
14	0	0	0	0	468	268	
15	0	0	0	0	473	268	
0	0	0	0	0	474	268	
1	0	0	0	0	468	268	
2	0	0	0	0	484	268	
3	0	0	0	0	501	268	
4	0	0	0	0	503	268	
5	0	0	0	0	517	268	
6	0	0	0	0	492	268	
7	0	0	0	0	497	268	
8	0	0	0	0	502	268	
9	0	0	0	0	494	268	
10	0	0	0	0	514	268	
11	0	0	0	0	508	268	
12	0	0	0	0	514	268	
13	0	0	0	0	504	268	
14	0	0	0	0	527	268	
15	0	0	0	0	518	268	
0	0	0	0	0	515	268	
1	0	0	0	0	512	268	
2	0	0	0	0	504	268	
3	0	0	0	0	511	268	
4	0	0	0	0	533	268	
5	0	0	0	0	527	268	
6	0	0	0	0	522	268	
7	0	0	0	0	520	268	
8	0	0	0	0	508	268	
9	0	0	0	0	501	268	
10	0	0	0	0	537	268	
11	0	0	0	0	516	268	
12	0	0	0	0	511	268	
13	0	0	0	0	514	268	
14	0	0	0	0	536	268	
15	0	0	0	0	483	268	
0	0	0	0	0	510	268	
1	0	0	0	0	519	268	
2	0	0	0	0	523	268	
3	0	0	0	0	520	268	
4	0	0	0	0	515	268	
5	0	0	0	0	509	268	
6	0	0	0	0	510	268	
7	0	0	0	0	511	268	
8	0	0	0	0	526	268	
9	0	0	0	0	510	268	
10	0	0	0	0	527	268	
11	0	0	0	0	537	268	
12	0	0	0	0	541	268	
13	0	0	0	0	535	268	
14	0	0	0	0	530	268	
15	0	0	0	0	525	268	
0	0	0	0	0	529	268	
1	0	0	0	0	492	268	
2	0	0	0	0	511	268	
3	0	0	0	0	506	268	
4	0	0	0	0	501	268	
5	0	0	0	0	560	268	
6	0	0	0	0	608	267	
7	0	0	0	0	678	268	
8	0	0	0	0	564	268	
9	0	0	0	0	384	268	
10	0	0	0	0	472	268	
11	0	0	0	0	465	268	
12	0	0	0	0	503	268	
13	0	0	0	0	483	268	
14	0	0	0	0	476	268	
15	0	0	0	0	496	267	
0	0	0	0	0	521	267	
1	0	0	0	0	503	268	
2	0	0	0	0	512	268	
3	0	0	0	0	489	268	
4	0	0	0	0	515	267	
5	0	0	0	0	511	267	
6	0	0	0	0	526	267	
7	0	0	0	0	528	267	
8	0	0	0	0	519	267	
9	0	0	0	0	534	267	
10	0	0	0	0	534	267	
11	0	0	0	0	539	267	
12	0	0	0	0	555	267	
13	0	0	0	0	550	267	
14	0	0	0	0	569	267	
15	0	0	0	0	560	267	
0	0	0	0	0	566	267	
1	0	0	0	0	539	267	
2	0	0	0	0	522	267	
3	0	0	0	0	482	267	
4	0	0	0	0	474	267	
5	0	0	0	0	443	267	
6	0	0	0	0	463	267	
7	0	0	0	0	457	266	
8	0	0	0	0	457	266	
9	0	0	0	0	478	267	
10	0	0	0	0	474	266	
11	0	0	0	0	479	266	
12	0	0	0	0	475	266	
13	0	0	0	0	509	266	
14	0	0	0	0	493	267	
15	0	0	0	0	510	266	
0	0	0	0	0	486	266	
1	0	0	0	0	504	266	
2	0	0	0	0	519	266	
3	0	0	0	0	509	265	
4	0	0	0	0	510	266	
5	0	0	0	0	514	266	
6	0	0	0	0	504	265	
7	0	0	0	0	511	265	
8	0	0	0	0	500	265	
9	0	0	0	0	513	265	
10	0	0	0	0	518	265	
11	0	0	0	0	504	265	
12	0	0	0	0	511	265	
13	0	0	0	0	525	265	
14	0	0	0	0	506	265	
15	0	0	0	0	515	265	
0	0	0	0	0	511	265	
1	0	0	0	0	508	265	
2	0	0	0	0	530	265	
3	0	0	0	0	518	265	
4	0	0	0	0	529	265	
5	0	0	0	0	505	265	
6	0	0	0	0	506	265	
7	0	0	0	0	510	265	
8	0	0	0	0	502	265	
9	0	0	0	0	518	264	
10	0	0	0	0	518	265	
11	0	0	0	0	507	265	
12	0	0	0	0	521	265	
13	0	0	0	0	536	264	
14	0	0	0	0	539	264	
15	0	0	0	0	529	264	
0	0	0	0	0	529	265	
1	0	0	0	0	539	264	
2	0	0	0	0	530	264	
3	0	0	0	0	492	264	
4	0	0	0	0	494	264	
5	0	0	0	0	489	264	
6	0	0	0	0	512	264	
7	0	0	0	0	508	264	
8	0	0	0	0	541	264	
9	0	0	0	0	614	264	
10	0	0	0	0	671	264	
11	0	0	0	0	539	264	
12	0	0	0	0	391	264	
13	0	0	0	0	446	264	
14	0	0	0	0	456	264	
15	0	0	0	0	467	263	
0	0	0	0	0	522	264	
1	0	0	0	0	489	263	
2	0	0	0	0	492	263	
3	0	0	0	0	498	263	
4	0	0	0	0	494	264	
5	0	0	0	0	486	263	
6	0	0	0	0	508	263	
7	0	0	0	0	497	263	
8	0	0	0	0	513	263	
9	0	0	0	0	519	263	
10	0	0	0	0	529	263	
11	0	0	0	0	534	263	
12	0	0	0	0	531	263	
13	0	0	0	0	532	263	
14	0	0	0	0	530	263	
15	0	0	0	0	559	263	
0	0	0	0	0	562	263	
1	0	0	0	0	552	263	
2	0	0	0	0	561	263	
3	0	0	0	0	551	263	
4	0	0	0	0	552	263	
5	0	0	0	0	505	263	
6	0	0	0	0	474	263	
7	0	0	0	0	463	263	
8	0	0	0	0	458	263	
9	0	0	0	0	450	263	
10	0	0	0	0	455	263	
11	0	0	0	0	472	263	
12	0	0	0	0	479	263	
13	0	0	0	0	466	262	
14	0	0	0	0	479	262	
15	0	0	0	0	481	262	
0	0	0	0	0	497	262	
1	0	0	0	0	482	262	
2	0	0	0	0	496	262	
3	0	0	0	0	501	262	
4	0	0	0	0	491	262	
5	0	0	0	0	504	262	
6	0	0	0	0	514	262	
7	0	0	0	0	516	262	
8	0	0	0	0	497	262	
9	0	0	0	0	513	262	
10	0	0	0	0	523	262	
11	0	0	0	0	513	262	
12	0	0	0	0	514	262	
13	0	0	0	0	499	262	
14	0	0	0	0	508	261	
15	0	0	0	0	511	261	
0	0	0	0	0	521	262	
1	0	0	0	0	495	261	
2	0	0	0	0	516	261	
3	0	0	0	0	517	261	
4	0	0	0	0	524	261	
5	0	0	0	0	523	261	
6	0	0	0	0	509	261	
7	0	0	0	0	512	261	
8	0	0	0	0	512	261	
9	0	0	0	0	521	261	
10	0	0	0	0	527	261	
11	0	0	0	0	502	261	
12	0	0	0	0	518	260	
13	0	0	0	0	528	261	
14	0	0	0	0	519	260	
15	0	0	0	0	524	261	
0	0	0	0	0	540	260	
1	0	0	0	0	520	261	
2	0	0	0	0	547	260	
3	0	0	0	0	525	260	
4	0	0	0	0	527	260	
5	0	0	0	0	484	260	
6	0	0	0	0	482	260	
7	0	0	0	0	524	260	
8	0	0	0	0	522	260	
9	0	0	0	0	536	260	
10	0	0	0	0	559	260	
11	0	0	0	0	676	260	
12	0	0	0	0	633	260	
13	0	0	0	0	427	260	
14	0	0	0	0	449	260	
15	0	0	0	0	465	260	
0	0	0	0	0	475	260	
1	0	0	0	0	476	259	
2	0	0	0	0	503	260	
3	0	0	0	0	466	260	
4	0	0	0	0	513	260	
5	0	0	0	0	495	259	
6	0	0	0	0	500	259	
7	0	0	0	0	492	259	
8	0	0	0	0	519	259	
9	0	0	0	0	527	259	
10	0	0	0	0	522	259	
11	0	0	0	0	506	259	
12	0	0	0	0	519	259	
13	0	0	0	0	548	259	
14	0	0	0	0	511	259	
15	0	0	0	0	547	259	
0	0	0	0	0	549	259	
1	0	0	0	0	563	259	
2	0	0	0	0	574	259	
3	0	0	0	0	567	259	
4	0	0	0	0	538	259	
5	0	0	0	0	521	259	
6	0	0	0	0	526	259	
7	0	0	0	0	510	259	
8	0	0	0	0	451	259	
9	0	0	0	0	459	259	
10	0	0	0	0	472	259	
11	0	0	0	0	460	259	
12	0	0	0	0	454	259	
13	0	0	0	0	448	258	
14	0	0	0	0	466	258	
15	0	0	0	0	472	258	
0	0	0	0	0	500	258	
1	0	0	0	0	489	258	
2	0	0	0	0	487	259	
3	0	0	0	0	497	258	
4	0	0	0	0	513	258	
5	0	0	0	0	489	258	
6	0	0	0	0	526	258	
7	0	0	0	0	497	258	
8	0	0	0	0	510	258	
9	0	0	0	0	500	258	
10	0	0	0	0	513	257	
11	0	0	0	0	498	258	
12	0	0	0	0	491	257	
13	0	0	0	0	505	258	
14	0	0	0	0	519	258	
15	0	0	0	0	504	258	
0	0	0	0	0	528	257	
1	0	0	0	0	508	257	
2	0	0	0	0	503	257	
3	0	0	0	0	491	257	
4	0	0	0	0	531	257	
5	0	0	0	0	514	257	
6	0	0	0	0	529	257	
7	0	0	0	0	513	257	
8	0	0	0	0	512	257	
9	0	0	0	0	524	257	
10	0	0	0	0	511	257	
11	0	0	0	0	513	257	
12	0	0	0	0	511	257	
13	0	0	0	0	522	257	
14	0	0	0	0	497	257	
15	0	0	0	0	526	257	
0	0	0	0	0	511	257	
1	0	0	0	0	512	256	
2	0	0	0	0	548	257	
3	0	0	0	0	523	257	
4	0	0	0	0	528	256	
5	0	0	0	0	556	257	
6	0	0	0	0	526	257	
7	0	0	0	0	523	256	
8	0	0	0	0	506	256	
9	0	0	0	0	492	256	
10	0	0	0	0	496	257	
11	0	0	0	0	492	256	
12	0	0	0	0	509	256	
13	0	0	0	0	528	256	
14	0	0	0	0	560	256	
15	0	0	0	0	630	256	
0	0	0	0	0	661	255	
1	0	0	0	0	478	256	
2	0	0	0	0	439	256	
3	0	0	0	0	483	255	
4	0	0	0	0	472	256	
5	0	0	0	0	482	255	
6	0	0	0	0	495	256	
7	0	0	0	0	492	255	
8	0	0	0	0	486	255	
9	0	0	0	0	503	256	
10	0	0	0	0	493	255	
11	0	0	0	0	490	255	
12	0	0	0	0	507	255	
13	0	0	0	0	504	255	
14	0	0	0	0	528	255	
15	0	0	0	0	503	255	
0	0	0	0	0	548	255	
1	0	0	0	0	518	255	
2	0	0	0	0	541	255	
3	0	0	0	0	521	255	
4	0	0	0	0	585	255	
5	0	0	0	0	551	255	
6	0	0	0	0	552	255	
7	0	0	0	0	555	255	
8	0	0	0	0	563	255	
9	0	0	0	0	550	255	
10	0	0	0	0	538	255	
11	0	0	0	0	494	255	
12	0	0	0	0	492	255	
13	0	0	0	0	469	255	
14	0	0	0	0	438	255	
15	0	0	0	0	464	255	
0	0	0	0	0	487	255	
1	0	0	0	0	473	255	
2	0	0	0	0	473	255	
3	0	0	0	0	458	255	
4	0	0	0	0	483	255	
5	0	0	0	0	494	255	
6	0	0	0	0	493	255	
7	0	0	0	0	506	255	
8	0	0	0	0	508	255	
9	0	0	0	0	510	255	
10	0	0	0	0	489	255	
11	0	0	0	0	505	254	
12	0	0	0	0	501	254	
13	0	0	0	0	506	254	
14	0	0	0	0	514	254	
15	0	0	0	0	508	254	
0	0	0	0	0	538	254	
1	0	0	0	0	482	255	
2	0	0	0	0	551	254	
3	0	0	0	0	499	254	
4	0	0	0	0	528	254	
5	0	0	0	0	511	254	
6	0	0	0	0	509	254	
7	0	0	0	0	511	254	
8	0	0	0	0	497	254	
9	0	0	0	0	521	254	
10	0	0	0	0	504	254	
11	0	0	0	0	515	254	
12	0	0	0	0	505	254	
13	0	0	0	0	519	254	
14	0	0	0	0	531	254	
15	0	0	0	0	512	254	
0	0	0	0	0	516	254	
1	0	0	0	0	511	253	
2	0	0	0	0	519	254	
3	0	0	0	0	508	254	
4	0	0	0	0	510	254	
5	0	0	0	0	520	253	
6	0	0	0	0	512	253	
7	0	0	0	0	518	254	
8	0	0	0	0	553	253	
9	0	0	0	0	536	253	
10	0	0	0	0	551	253	
11	0	0	0	0	543	253	
12	0	0	0	0	504	253	
13	0	0	0	0	497	253	
14	0	0	0	0	475	253	
15	0	0	0	0	505	253	
0	0	0	0	0	510	253	
1	0	0	0	0	532	253	
2	0	0	0	0	558	253	
3	0	0	0	0	591	253	
4	0	0	0	0	665	252	
5	0	0	0	0	556	253	
6	0	0	0	0	420	253	
7	0	0	0	0	455	253	
8	0	0	0	0	459	253	
9	0	0	0	0	476	253	
10	0	0	0	0	482	253	
11	0	0	0	0	510	253	
12	0	0	0	0	486	252	
13	0	0	0	0	484	252	
14	0	0	0	0	495	253	
15	0	0	0	0	491	252	
0	0	0	0	0	515	253	
1	0	0	0	0	529	252	
2	0	0	0	0	513	253	
3	0	0	0	0	515	252	
4	0	0	0	0	511	252	
5	0	0	0	0	527	252	
6	0	0	0	0	540	252	
7	0	0	0	0	537	252	
8	0	0	0	0	552	252	
9	0	0	0	0	554	252	
10	0	0	0	0	579	252	
11	0	0	0	0	545	252	
12	0	0	0	0	544	252	
13	0	0	0	0	544	252	
14	0	0	0	0	539	252	
15	0	0	0	0	510	252	
0	0	0	0	0	498	252	
1	0	0	0	0	461	252	
2	0	0	0	0	443	252	
3	0	0	0	0	465	252	
4	0	0	0	0	455	252	
5	0	0	0	0	453	252	
6	0	0	0	0	470	252	
7	0	0	0	0	442	252	
8	0	0	0	0	499	252	
9	0	0	0	0	467	252	
10	0	0	0	0	495	252	
11	0	0	0	0	474	252	
12	0	0	0	0	494	252	
13	0	0	0	0	514	252	
14	0	0	0	0	524	252	
15	0	0	0	0	505	252	
0	0	0	0	0	529	252	
1	0	0	0	0	495	252	
2	0	0	0	0	487	252	
3	0	0	0	0	501	252	
4	0	0	0	0	508	252	
5	0	0	0	0	526	252	
6	0	0	0	0	531	252	
7	0	0	0	0	521	252	
8	0	0	0	0	510	252	
9	0	0	0	0	508	252	
10	0	0	0	0	512	252	
11	0	0	0	0	519	252	
12	0	0	0	0	509	251	
13	0	0	0	0	505	252	
14	0	0	0	0	519	252	
15	0	0	0	0	499	251	
0	0	0	0	0	515	252	
1	0	0	0	0	521	251	
2	0	0	0	0	515	251	
3	0	0	0	0	488	252	
4	0	0	0	0	521	251	
5	0	0	0	0	496	252	
6	0	0	0	0	532	251	
7	0	0	0	0	536	251	
8	0	0	0	0	539	252	
9	0	0	0	0	555	252	
10	0	0	0	0	554	251	
11	0	0	0	0	508	251	
12	0	0	0	0	519	251	
13	0	0	0	0	516	251	
14	0	0	0	0	498	251	
15	0	0	0	0	486	251	
0	0	0	0	0	505	251	
1	0	0	0	0	497	251	
2	0	0	0	0	557	251	
3	0	0	0	0	579	251	
4	0	0	0	0	664	251	
5	0	0	0	0	623	251	
6	0	0	0	0	416	251	
7	0	0	0	0	405	251	
8	0	0	0	0	485	251	
9	0	0	0	0	483	251	
10	0	0	0	0	483	251	
11	0	0	0	0	488	251	
12	0	0	0	0	490	251	
13	0	0	0	0	495	251	
14	0	0	0	0	500	251	
15	0	0	0	0	506	251	
0	0	0	0	0	513	251	
1	0	0	0	0	518	251	
2	0	0	0	0	510	251	
3	0	0	0	0	527	251	
4	0	0	0	0	522	251	
5	0	0	0	0	529	251	
6	0	0	0	0	535	251	
7	0	0	0	0	533	250	
8	0	0	0	0	548	251	
9	0	0	0	0	535	251	
10	0	0	0	0	545	251	
11	0	0	0	0	568	250	
12	0	0	0	0	563	250	
13	0	0	0	0	551	251	
14	0	0	0	0	557	251	
15	0	0	0	0	501	250	
0	0	0	0	0	483	250	
1	0	0	0	0	471	250	
2	0	0	0	0	451	250	
3	0	0	0	0	476	250	
4	0	0	0	0	445	250	
5	0	0	0	0	455	250	
6	0	0	0	0	467	250	
7	0	0	0	0	469	250	
8	0	0	0	0	474	250	
9	0	0	0	0	460	250	
10	0	0	0	0	503	250	
11	0	0	0	0	475	250	
12	0	0	0	0	510	250	
13	0	0	0	0	503	250	
14	0	0	0	0	499	250	
15	0	0	0	0	506	250	
0	0	0	0	0	520	250	
1	0	0	0	0	492	250	
2	0	0	0	0	496	250	
3	0	0	0	0	487	250	
4	0	0	0	0	499	250	
5	0	0	0	0	518	250	
6	0	0	0	0	519	250	
7	0	0	0	0	534	250	
8	0	0	0	0	496	250	
9	0	0	0	0	494	249	
10	0	0	0	0	515	250	
11	0	0	0	0	536	249	
12	0	0	0	0	503	250	
13	0	0	0	0	521	249	
14	0	0	0	0	506	250	
15	0	0	0	0	494	250	
0	0	0	0	0	527	249	
1	0	0	0	0	547	249	
2	0	0	0	0	543	249	
3	0	0	0	0	532	250	
4	0	0	0	0	528	249	
5	0	0	0	0	504	249	
6	0	0	0	0	473	250	
7	0	0	0	0	487	249	
8	0	0	0	0	489	249	
9	0	0	0	0	497	249	
10	0	0	0	0	506	249	
11	0	0	0	0	545	249	
12	0	0	0	0	586	249	
13	0	0	0	0	660	249	
14	0	0	0	0	598	249	
15	0	0	0	0	401	249	
0	0	0	0	0	437	249	
1	0	0	0	0	474	249	
2	0	0	0	0	493	249	
3	0	0	0	0	489	249	
4	0	0	0	0	515	249	
5	0	0	0	0	502	249	
6	0	0	0	0	496	249	
7	0	0	0	0	490	249	
8	0	0	0	0	515	249	
9	0	0	0	0	503	249	
10	0	0	0	0	497	249	
11	0	0	0	0	505	249	
12	0	0	0	0	536	249	
13	0	0	0	0	537	249	
14	0	0	0	0	521	249	
15	0	0	0	0	536	249	
0	0	0	0	0	539	249	
1	0	0	0	0	545	249	
2	0	0	0	0	561	249	
3	0	0	0	0	566	249	
4	0	0	0	0	556	249	
5	0	0	0	0	565	249	
6	0	0	0	0	553	249	
7	0	0	0	0	542	249	
8	0	0	0	0	540	249	
9	0	0	0	0	470	249	
10	0	0	0	0	476	249	
11	0	0	0	0	450	249	
12	0	0	0	0	448	249	
13	0	0	0	0	454	249	
14	0	0	0	0	466	249	
15	0	0	0	0	477	249	
0	0	0	0	0	500	249	
1	0	0	0	0	484	249	
2	0	0	0	0	490	249	
3	0	0	0	0	504	249	
4	0	0	0	0	494	249	
5	0	0	0	0	511	249	
6	0	0	0	0	491	249	
7	0	0	0	0	494	248	
8	0	0	0	0	517	249	
9	0	0	0	0	480	248	
10	0	0	0	0	515	248	
11	0	0	0	0	509	248	
12	0	0	0	0	515	249	
13	0	0	0	0	510	249	
14	0	0	0	0	494	249	
15	0	0	0	0	484	248	
0	0	0	0	0	510	248	
1	0	0	0	0	515	249	
2	0	0	0	0	506	248	
3	0	0	0	0	518	249	
4	0	0	0	0	525	248	
5	0	0	0	0	523	248	
6	0	0	0	0	528	249	
7	0	0	0	0	508	249	
8	0	0	0	0	529	249	
9	0	0	0	0	510	248	
10	0	0	0	0	502	248	
11	0	0	0	0	541	249	
12	0	0	0	0	522	249	
13	0	0	0	0	535	248	
14	0	0	0	0	532	248	
15	0	0	0	0	530	249	
0	0	0	0	0	519	248	
1	0	0	0	0	520	249	
2	0	0	0	0	505	249	
3	0	0	0	0	505	249	
4	0	0	0	0	497	249	
5	0	0	0	0	532	249	
6	0	0	0	0	523	249	
7	0	0	0	0	545	249	
8	0	0	0	0	627	248	
9	0	0	0	0	668	249	
10	0	0	0	0	472	249	
11	0	0	0	0	436	249	
12	0	0	0	0	473	249	
13	0	0	0	0	490	249	
14	0	0	0	0	493	249	
15	0	0	0	0	480	249	
0	0	0	0	0	495	249	
1	0	0	0	0	507	249	
2	0	0	0	0	502	249	
3	0	0	0	0	516	249	
4	0	0	0	0	503	249	
5	0	0	0	0	508	249	
6	0	0	0	0	529	249	
7	0	0	0	0	502	249	
8	0	0	0	0	508	250	
9	0	0	0	0	545	249	
10	0	0	0	0	526	249	
11	0	0	0	0	532	249	
12	0	0	0	0	553	250	
13	0	0	0	0	569	250	
14	0	0	0	0	536	250	
15	0	0	0	0	568	250	
0	0	0	0	0	568	250	
1	0	0	0	0	559	250	
2	0	0	0	0	539	251	
3	0	0	0	0	520	250	
4	0	0	0	0	502	250	
5	0	0	0	0	464	250	
6	0	0	0	0	456	251	
7	0	0	0	0	466	251	
8	0	0	0	0	487	251	
9	0	0	0	0	472	251	
10	0	0	0	0	450	251	
11	0	0	0	0	482	251	
12	0	0	0	0	480	251	
13	0	0	0	0	486	251	
14	0	0	0	0	504	251	
15	0	0	0	0	505	251	
0	0	0	0	0	534	251	
1	0	0	0	0	506	252	
2	0	0	0	0	518	252	
3	0	0	0	0	499	252	
4	0	0	0	0	521	252	
5	0	0	0	0	493	252	
6	0	0	0	0	509	252	
7	0	0	0	0	504	252	
8	0	0	0	0	522	252	
9	0	0	0	0	521	252	
10	0	0	0	0	507	252	
11	0	0	0	0	496	252	
12	0	0	0	0	526	252	
13	0	0	0	0	497	252	
14	0	0	0	0	501	252	
15	0	0	0	0	501	252	
0	0	0	0	0	529	252	
1	0	0	0	0	521	252	
2	0	0	0	0	511	253	
3	0	0	0	0	514	253	
4	0	0	0	0	507	253	
5	0	0	0	0	508	253	
6	0	0	0	0	519	253	
7	0	0	0	0	530	253	
8	0	0	0	0	523	253	
9	0	0	0	0	536	253	
10	0	0	0	0	538	253	
11	0	0	0	0	537	254	
12	0	0	0	0	539	254	
13	0	0	0	0	535	254	
14	0	0	0	0	486	254	
15	0	0	0	0	490	254	
0	0	0	0	0	493	254	
1	0	0	0	0	513	254	
2	0	0	0	0	493	254	
3	0	0	0	0	494	254	
4	0	0	0	0	548	254	
5	0	0	0	0	588	255	
6	0	0	0	0	665	254	
7	0	0	0	0	611	254	
8	0	0	0	0	408	255	
9	0	0	0	0	446	255	
10	0	0	0	0	469	255	
11	0	0	0	0	465	255	
12	0	0	0	0	507	255	
13	0	0	0	0	481	255	
14	0	0	0	0	489	255	
15	0	0	0	0	494	255	
0	0	0	0	0	496	255	
1	0	0	0	0	506	255	
2	0	0	0	0	519	255	
3	0	0	0	0	507	255	
4	0	0	0	0	511	255	
5	0	0	0	0	531	256	
6	0	0	0	0	522	256	
7	0	0	0	0	512	256	
8	0	0	0	0	507	256	
9	0	0	0	0	527	256	
10	0	0	0	0	541	256	
11	0	0	0	0	541	256	
12	0	0	0	0	559	256	
13	0	0	0	0	580	256	
14	0	0	0	0	546	256	
15	0	0	0	0	558	256	
0	0	0	0	0	565	256	
1	0	0	0	0	470	257	
2	0	0	0	0	472	257	
3	0	0	0	0	460	257	
4	0	0	0	0	456	257	
5	0	0	0	0	456	257	
6	0	0	0	0	471	257	
7	0	0	0	0	479	257	
8	0	0	0	0	490	257	
9	0	0	0	0	453	257	
10	0	0	0	0	486	257	
11	0	0	0	0	465	257	
12	0	0	0	0	491	257	
13	0	0	0	0	486	257	
14	0	0	0	0	507	257	
15	0	0	0	0	513	257	
0	0	0	0	0	499	257	
1	0	0	0	0	495	257	
2	0	0	0	0	496	257	
3	0	0	0	0	506	257	
4	0	0	0	0	512	257	
5	0	0	0	0	498	258	
6	0	0	0	0	491	258	
7	0	0	0	0	514	257	
8	0	0	0	0	497	258	
9	0	0	0	0	512	258	
10	0	0	0	0	509	258	
11	0	0	0	0	503	258	
12	0	0	0	0	502	258	
13	0	0	0	0	526	258	
14	0	0	0	0	504	258	
15	0	0	0	0	496	258	
0	0	0	0	0	497	258	
1	0	0	0	0	512	258	
2	0	0	0	0	509	259	
3	0	0	0	0	505	259	
4	0	0	0	0	557	259	
5	0	0	0	0	512	259	
6	0	0	0	0	499	259	
7	0	0	0	0	508	259	
8	0	0	0	0	525	259	
9	0	0	0	0	519	259	
10	0	0	0	0	531	259	
11	0	0	0	0	524	259	
12	0	0	0	0	547	259	
13	0	0	0	0	550	259	
14	0	0	0	0	526	259	
15	0	0	0	0	533	259	
0	0	0	0	0	513	259	
1	0	0	0	0	488	259	
2	0	0	0	0	479	259	
3	0	0	0	0	494	260	
4	0	0	0	0	509	259	
5	0	0	0	0	524	259	
6	0	0	0	0	589	259	
7	0	0	0	0	670	259	
8	0	0	0	0	655	260	
9	0	0	0	0	450	260	
10	0	0	0	0	436	260	
11	0	0	0	0	464	260	
12	0	0	0	0	494	260	
13	0	0	0	0	467	260	
14	0	0	0	0	496	260	
15	0	0	0	0	486	260	
0	0	0	0	0	448	261	
1	0	0	0	0	495	261	
2	0	0	0	0	513	261	
3	0	0	0	0	512	261	
4	0	0	0	0	520	261	
5	0	0	0	0	487	261	
6	0	0	0	0	531	261	
7	0	0	0	0	527	261	
8	0	0	0	0	504	261	
9	0	0	0	0	527	261	
10	0	0	0	0	531	261	
11	0	0	0	0	533	262	
12	0	0	0	0	566	262	
13	0	0	0	0	551	261	
14	0	0	0	0	575	262	
15	0	0	0	0	551	262	
0	0	0	0	0	564	261	
1	0	0	0	0	579	262	
2	0	0	0	0	539	262	
3	0	0	0	0	494	262	
4	0	0	0	0	478	262	
5	0	0	0	0	442	262	
6	0	0	0	0	475	262	
7	0	0	0	0	455	262	
8	0	0	0	0	480	262	
9	0	0	0	0	456	262	
10	0	0	0	0	478	262	
11	0	0	0	0	470	262	
12	0	0	0	0	470	262	
13	0	0	0	0	471	262	
14	0	0	0	0	515	262	
15	0	0	0	0	492	262	
0	0	0	0	0	517	263	
1	0	0	0	0	488	263	
2	0	0	0	0	501	263	
3	0	0	0	0	499	263	
4	0	0	0	0	516	263	
5	0	0	0	0	513	263	
6	0	0	0	0	511	263	
7	0	0	0	0	515	263	
8	0	0	0	0	479	263	
9	0	0	0	0	513	263	
10	0	0	0	0	502	263	
11	0	0	0	0	502	263	
12	0	0	0	0	507	263	
13	0	0	0	0	502	263	
14	0	0	0	0	534	263	
15	0	0	0	0	523	263	
0	0	0	0	0	504	263	
1	0	0	0	0	525	263	
2	0	0	0	0	496	263	
3	0	0	0	0	519	263	
4	0	0	0	0	515	263	
5	0	0	0	0	513	263	
6	0	0	0	0	519	263	
7	0	0	0	0	511	263	
8	0	0	0	0	529	263	
9	0	0	0	0	505	263	
10	0	0	0	0	537	263	
11	0	0	0	0	507	263	
12	0	0	0	0	564	263	
13	0	0	0	0	528	263	
14	0	0	0	0	525	263	
15	0	0	0	0	530	263	
0	0	0	0	0	535	263	
1	0	0	0	0	478	263	
2	0	0	0	0	505	263	
3	0	0	0	0	521	263	
4	0	0	0	0	492	263	
5	0	0	0	0	523	263	
6	0	0	0	0	536	263	
7	0	0	0	0	628	263	
8	0	0	0	0	697	263	
9	0	0	0	0	504	263	
10	0	0	0	0	400	263	
11	0	0	0	0	454	263	
12	0	0	0	0	472	263	
13	0	0	0	0	480	263	
14	0	0	0	0	492	263	
15	0	0	0	0	472	263	
0	0	0	0	0	484	263	
1	0	0	0	0	478	263	
2	0	0	0	0	515	263	
3	0	0	0	0	502	263	
4	0	0	0	0	524	263	
5	0	0	0	0	524	263	
6	0	0	0	0	520	263	
7	0	0	0	0	525	263	
8	0	0	0	0	507	263	
9	0	0	0	0	542	263	
10	0	0	0	0	517	263	
11	0	0	0	0	545	263	
12	0	0	0	0	540	263	
13	0	0	0	0	549	263	
14	0	0	0	0	585	263	
15	0	0	0	0	532	263	
0	0	0	0	0	560	263	
1	0	0	0	0	536	263	
2	0	0	0	0	526	263	
3	0	0	0	0	494	263	
4	0	0	0	0	499	263	
5	0	0	0	0	470	263	
6	0	0	0	0	472	263	
7	0	0	0	0	441	263	
8	0	0	0	0	447	263	
9	0	0	0	0	462	263	
10	0	0	0	0	472	263	
11	0	0	0	0	472	263	
12	0	0	0	0	483	263	
13	0	0	0	0	492	263	
14	0	0	0	0	479	263	
15	0	0	0	0	474	263	
0	0	0	0	0	501	263	
1	0	0	0	0	476	263	
2	0	0	0	0	527	263	
3	0	0	0	0	525	263	
4	0	0	0	0	513	263	
5	0	0	0	0	504	263	
6	0	0	0	0	499	263	
7	0	0	0	0	498	263	
8	0	0	0	0	508	263	
9	0	0	0	0	518	263	
10	0	0	0	0	519	263	
11	0	0	0	0	487	263	
12	0	0	0	0	513	263	
13	0	0	0	0	519	263	
14	0	0	0	0	502	263	
15	0	0	0	0	504	263	
0	0	0	0	0	520	263	
1	0	0	0	0	507	263	
2	0	0	0	0	501	263	
3	0	0	0	0	513	263	
4	0	0	0	0	510	263	
5	0	0	0	0	515	263	
6	0	0	0	0	509	262	
7	0	0	0	0	512	263	
8	0	0	0	0	512	263	
9	0	0	0	0	532	262	
10	0	0	0	0	536	262	
11	0	0	0	0	540	263	
12	0	0	0	0	521	262	
13	0	0	0	0	551	263	
14	0	0	0	0	524	262	
15	0	0	0	0	511	263	
0	0	0	0	0	497	263	
1	0	0	0	0	493	262	
2	0	0	0	0	493	262	
3	0	0	0	0	505	262	
4	0	0	0	0	541	262	
5	0	0	0	0	560	262	
6	0	0	0	0	698	262	
7	0	0	0	0	631	262	
8	0	0	0	0	433	262	
9	0	0	0	0	440	262	
10	0	0	0	0	480	262	
11	0	0	0	0	450	262	
12	0	0	0	0	480	262	
13	0	0	0	0	488	262	
14	0	0	0	0	517	262	
15	0	0	0	0	487	262	
0	0	0	0	0	489	262	
1	0	0	0	0	507	262	
2	0	0	0	0	513	262	
3	0	0	0	0	490	262	
4	0	0	0	0	502	262	
5	0	0	0	0	526	262	
6	0	0	0	0	540	262	
7	0	0	0	0	537	261	
8	0	0	0	0	519	262	
9	0	0	0	0	521	261	
10	0	0	0	0	541	261	
11	0	0	0	0	550	262	
12	0	0	0	0	563	261	
13	0	0	0	0	555	261	
14	0	0	0	0	580	261	
15	0	0	0	0	577	261	
0	0	0	0	0	555	261	
1	0	0	0	0	524	261	
2	0	0	0	0	506	261	
3	0	0	0	0	452	261	
4	0	0	0	0	468	261	
5	0	0	0	0	443	261	
6	0	0	0	0	469	261	
7	0	0	0	0	470	261	
8	0	0	0	0	472	261	
9	0	0	0	0	482	261	
10	0	0	0	0	473	261	
11	0	0	0	0	490	260	
12	0	0	0	0	472	261	
13	0	0	0	0	473	260	
14	0	0	0	0	500	261	
15	0	0	0	0	515	261	
0	0	0	0	0	511	261	
1	0	0	0	0	504	261	
2	0	0	0	0	505	260	
3	0	0	0	0	491	260	
4	0	0	0	0	522	260	
5	0	0	0	0	502	260	
6	0	0	0	0	531	260	
7	0	0	0	0	490	260	
8	0	0	0	0	497	260	
9	0	0	0	0	506	260	
10	0	0	0	0	518	260	
11	0	0	0	0	507	260	
12	0	0	0	0	518	260	
13	0	0	0	0	501	260	
14	0	0	0	0	503	260	
15	0	0	0	0	520	260	
0	0	0	0	0	520	260	
1	0	0	0	0	512	260	
2	0	0	0	0	510	260	
3	0	0	0	0	512	260	
4	0	0	0	0	514	260	
5	0	0	0	0	527	259	
6	0	0	0	0	500	260	
7	0	0	0	0	516	260	
8	0	0	0	0	523	259	
9	0	0	0	0	521	259	
10	0	0	0	0	544	259	
11	0	0	0	0	523	259	
12	0	0	0	0	520	259	
13	0	0	0	0	545	259	
14	0	0	0	0	539	259	
15	0	0	0	0	521	259	
0	0	0	0	0	518	259	
1	0	0	0	0	499	259	
2	0	0	0	0	512	259	
3	0	0	0	0	499	259	
4	0	0	0	0	513	259	
5	0	0	0	0	543	259	
6	0	0	0	0	596	259	
7	0	0	0	0	687	258	
8	0	0	0	0	611	259	
9	0	0	0	0	385	259	
10	0	0	0	0	444	259	
11	0	0	0	0	476	259	
12	0	0	0	0	472	259	
13	0	0	0	0	479	259	
14	0	0	0	0	496	259	
15	0	0	0	0	487	258	
0	0	0	0	0	490	259	
1	0	0	0	0	499	259	
2	0	0	0	0	523	258	
3	0	0	0	0	491	259	
4	0	0	0	0	498	258	
5	0	0	0	0	514	259	
6	0	0	0	0	507	259	
7	0	0	0	0	521	258	
8	0	0	0	0	502	258	
9	0	0	0	0	548	258	
10	0	0	0	0	528	258	
11	0	0	0	0	540	258	
12	0	0	0	0	571	258	
13	0	0	0	0	568	258	
14	0	0	0	0	571	258	
15	0	0	0	0	563	258	
0	0	0	0	0	563	258	
1	0	0	0	0	550	258	
2	0	0	0	0	532	258	
3	0	0	0	0	472	258	
4	0	0	0	0	447	258	
5	0	0	0	0	452	258	
6	0	0	0	0	467	258	
7	0	0	0	0	439	258	
8	0	0	0	0	458	258	
9	0	0	0	0	460	258	
10	0	0	0	0	478	258	
11	0	0	0	0	460	258	
12	0	0	0	0	485	258	
13	0	0	0	0	503	258	
14	0	0	0	0	475	258	
15	0	0	0	0	496	258	
0	0	0	0	0	502	258	
1	0	0	0	0	500	258	
2	0	0	0	0	492	258	
3	0	0	0	0	488	258	
4	0	0	0	0	512	258	
5	0	0	0	0	519	258	
6	0	0	0	0	510	258	
7	0	0	0	0	504	258	
8	0	0	0	0	524	258	
9	0	0	0	0	501	258	
10	0	0	0	0	521	258	
11	0	0	0	0	523	258	
12	0	0	0	0	510	258	
13	0	0	0	0	514	258	
14	0	0	0	0	511	258	
15	0	0	0	0	507	258	
0	0	0	0	0	519	258	
1	0	0	0	0	512	258	
2	0	0	0	0	502	258	
3	0	0	0	0	505	258	
4	0	0	0	0	516	258	
5	0	0	0	0	515	258	
6	0	0	0	0	519	259	
7	0	0	0	0	506	258	
8	0	0	0	0	521	258	
9	0	0	0	0	515	258	
10	0	0	0	0	513	258	
11	0	0	0	0	539	259	
12	0	0	0	0	536	259	
13	0	0	0	0	524	259	
14	0	0	0	0	532	259	
15	0	0	0	0	542	258	
0	0	0	0	0	538	259	
1	0	0	0	0	536	259	
2	0	0	0	0	504	259	
3	0	0	0	0	481	259	
4	0	0	0	0	478	259	
5	0	0	0	0	496	259	
6	0	0	0	0	510	259	
7	0	0	0	0	515	259	
8	0	0	0	0	554	259	
9	0	0	0	0	662	259	
10	0	0	0	0	693	259	
11	0	0	0	0	490	259	
12	0	0	0	0	416	259	
13	0	0	0	0	463	259	
14	0	0	0	0	459	259	
15	0	0	0	0	487	259	
0	0	0	0	0	496	259	
1	0	0	0	0	491	259	
2	0	0	0	0	480	259	
3	0	0	0	0	475	259	
4	0	0	0	0	508	259	
5	0	0	0	0	507	259	
6	0	0	0	0	507	260	
7	0	0	0	0	509	259	
8	0	0	0	0	541	260	
9	0	0	0	0	483	259	
10	0	0	0	0	521	260	
11	0	0	0	0	542	259	
12	0	0	0	0	540	260	
13	0	0	0	0	534	260	
14	0	0	0	0	569	259	
15	0	0	0	0	556	260	
0	0	0	0	0	560	260	
1	0	0	0	0	564	260	
2	0	0	0	0	555	260	
3	0	0	0	0	547	260	
4	0	0	0	0	542	260	
5	0	0	0	0	512	260	
6	0	0	0	0	488	260	
7	0	0	0	0	465	260	
8	0	0	0	0	459	260	
9	0	0	0	0	441	260	
10	0	0	0	0	453	260	
11	0	0	0	0	465	261	
12	0	0	0	0	455	260	
13	0	0	0	0	466	260	
14	0	0	0	0	493	261	
15	0	0	0	0	462	260	
0	0	0	0	0	500	260	
1	0	0	0	0	518	261	
2	0	0	0	0	480	261	
3	0	0	0	0	496	261	
4	0	0	0	0	500	261	
5	0	0	0	0	506	261	
6	0	0	0	0	515	261	
7	0	0	0	0	494	261	
8	0	0	0	0	508	261	
9	0	0	0	0	521	261	
10	0	0	0	0	503	261	
11	0	0	0	0	516	261	
12	0	0	0	0	512	261	
13	0	0	0	0	516	261	
14	0	0	0	0	498	261	
15	0	0	0	0	504	261	
0	0	0	0	0	508	261	
1	0	0	0	0	511	261	
2	0	0	0	0	528	262	
3	0	0	0	0	481	261	
4	0	0	0	0	505	262	
5	0	0	0	0	498	262	
6	0	0	0	0	512	262	
7	0	0	0	0	523	262	
8	0	0	0	0	531	262	
9	0	0	0	0	529	262	
10	0	0	0	0	511	262	
11	0	0	0	0	524	261	
12	0	0	0	0	523	261	
13	0	0	0	0	521	262	
14	0	0	0	0	532	262	
15	0	0	0	0	493	262	
0	0	0	0	0	528	262	
1	0	0	0	0	528	262	
2	0	0	0	0	553	262	
3	0	0	0	0	539	262	
4	0	0	0	0	529	262	
5	0	0	0	0	548	262	
6	0	0	0	0	519	262	
7	0	0	0	0	486	262	
8	0	0	0	0	486	262	
9	0	0	0	0	487	262	
10	0	0	0	0	503	262	
11	0	0	0	0	502	262	
12	0	0	0	0	551	262	
13	0	0	0	0	628	261	
14	0	0	0	0	716	262	
15	0	0	0	0	551	262	
0	0	0	0	0	392	262	
1	0	0	0	0	434	262	
2	0	0	0	0	472	262	
3	0	0	0	0	449	262	
4	0	0	0	0	466	262	
5	0	0	0	0	470	262	
6	0	0	0	0	473	262	
7	0	0	0	0	485	262	
8	0	0	0	0	504	262	
9	0	0	0	0	484	262	
10	0	0	0	0	524	262	
11	0	0	0	0	498	262	
12	0	0	0	0	535	262	
13	0	0	0	0	516	262	
14	0	0	0	0	529	262	
15	0	0	0	0	515	262	
0	0	0	0	0	536	262	
1	0	0	0	0	543	262	
2	0	0	0	0	545	262	
3	0	0	0	0	551	262	
4	0	0	0	0	572	262	
5	0	0	0	0	566	262	
6	0	0	0	0	560	262	
7	0	0	0	0	560	262	
8	0	0	0	0	545	262	
9	0	0	0	0	517	262	
10	0	0	0	0	491	262	
11	0	0	0	0	447	262	
12	0	0	0	0	466	262	
13	0	0	0	0	447	262	
14	0	0	0	0	430	262	
15	0	0	0	0	451	262	
0	0	0	0	0	475	262	
1	0	0	0	0	462	262	
2	0	0	0	0	480	262	
3	0	0	0	0	492	262	
4	0	0	0	0	503	262	
5	0	0	0	0	494	262	
6	0	0	0	0	506	262	
7	0	0	0	0	492	262	
8	0	0	0	0	502	262	
9	0	0	0	0	504	262	
10	0	0	0	0	503	262	
11	0	0	0	0	496	262	
12	0	0	0	0	524	262	
13	0	0	0	0	504	262	
14	0	0	0	0	512	262	
15	0	0	0	0	520	262	
0	0	0	0	0	516	262	
1	0	0	0	0	515	262	
2	0	0	0	0	495	262	
3	0	0	0	0	483	262	
4	0	0	0	0	512	262	
5	0	0	0	0	507	262	
6	0	0	0	0	495	262	
7	0	0	0	0	521	262	
8	0	0	0	0	520	262	
9	0	0	0	0	502	262	
10	0	0	0	0	523	262	
11	0	0	0	0	512	262	
12	0	0	0	0	501	262	
13	0	0	0	0	512	262	
14	0	0	0	0	523	262	
15	0	0	0	0	513	262	
0	0	0	0	0	530	262	
1	0	0	0	0	509	262	
2	0	0	0	0	530	262	
3	0	0	0	0	525	262	
4	0	0	0	0	543	262	
5	0	0	0	0	537	262	
6	0	0	0	0	519	262	
7	0	0	0	0	529	262	
8	0	0	0	0	523	262	
9	0	0	0	0	504	262	
10	0	0	0	0	488	262	
11	0	0	0	0	517	262	
12	0	0	0	0	497	261	
13	0	0	0	0	510	262	
14	0	0	0	0	527	262	
15	0	0	0	0	594	261	
0	0	0	0	0	702	262	
1	0	0	0	0	627	262	
2	0	0	0	0	416	262	
3	0	0	0	0	439	262	
4	0	0	0	0	479	261	
5	0	0	0	0	470	261	
6	0	0	0	0	493	262	
7	0	0	0	0	478	261	
8	0	0	0	0	501	262	
9	0	0	0	0	480	262	
10	0	0	0	0	491	261	
11	0	0	0	0	489	261	
12	0	0	0	0	526	262	
13	0	0	0	0	502	261	
14	0	0	0	0	511	261	
15	0	0	0	0	513	261	
0	0	0	0	0	520	261	
1	0	0	0	0	518	261	
2	0	0	0	0	525	261	
3	0	0	0	0	519	261	
4	0	0	0	0	557	261	
5	0	0	0	0	535	261	
6	0	0	0	0	569	261	
7	0	0	0	0	570	261	
8	0	0	0	0	572	261	
9	0	0	0	0	560	261	
10	0	0	0	0	532	261	
11	0	0	0	0	512	261	
12	0	0	0	0	490	261	
13	0	0	0	0	476	261	
14	0	0	0	0	466	261	
15	0	0	0	0	455	261	
0	0	0	0	0	464	261	
1	0	0	0	0	446	261	
2	0	0	0	0	443	261	
3	0	0	0	0	479	261	
4	0	0	0	0	477	261	
5	0	0	0	0	492	261	
6	0	0	0	0	485	261	
7	0	0	0	0	491	262	
8	0	0	0	0	500	261	
9	0	0	0	0	486	261	
10	0	0	0	0	487	261	
11	0	0	0	0	503	262	
12	0	0	0	0	504	261	
13	0	0	0	0	509	261	
14	0	0	0	0	515	262	
15	0	0	0	0	486	261	
0	0	0	0	0	516	261	
1	0	0	0	0	489	261	
2	0	0	0	0	511	261	
3	0	0	0	0	511	262	
4	0	0	0	0	496	262	
5	0	0	0	0	515	261	
6	0	0	0	0	527	261	
7	0	0	0	0	494	262	
8	0	0	0	0	507	262	
9	0	0	0	0	508	262	
10	0	0	0	0	506	262	
11	0	0	0	0	515	262	
12	0	0	0	0	521	262	
13	0	0	0	0	505	262	
14	0	0	0	0	513	262	
15	0	0	0	0	502	262	
0	0	0	0	0	508	262	
1	0	0	0	0	521	263	
2	0	0	0	0	528	262	
3	0	0	0	0	564	262	
4	0	0	0	0	531	263	
5	0	0	0	0	538	263	
6	0	0	0	0	510	263	
7	0	0	0	0	497	263	
8	0	0	0	0	483	263	
9	0	0	0	0	481	263	
10	0	0	0	0	514	263	
11	0	0	0	0	493	263	
12	0	0	0	0	528	263	
13	0	0	0	0	543	263	
14	0	0	0	0	665	263	
15	0	0	0	0	703	263	
0	0	0	0	0	511	263	
1	0	0	0	0	409	263	
2	0	0	0	0	451	264	
3	0	0	0	0	450	264	
4	0	0	0	0	478	264	
5	0	0	0	0	462	264	
6	0	0	0	0	470	264	
7	0	0	0	0	475	264	
8	0	0	0	0	480	264	
9	0	0	0	0	487	265	
10	0	0	0	0	517	264	
11	0	0	0	0	487	265	
12	0	0	0	0	522	265	
13	0	0	0	0	508	265	
14	0	0	0	0	562	265	
15	0	0	0	0	502	265	
0	0	0	0	0	529	265	
1	0	0	0	0	530	265	
2	0	0	0	0	539	265	
3	0	0	0	0	553	265	
4	0	0	0	0	579	265	
5	0	0	0	0	573	266	
6	0	0	0	0	585	266	
7	0	0	0	0	573	266	
8	0	0	0	0	571	266	
9	0	0	0	0	547	266	
10	0	0	0	0	510	266	
11	0	0	0	0	462	266	
12	0	0	0	0	440	266	
13	0	0	0	0	453	266	
14	0	0	0	0	454	267	
15	0	0	0	0	472	267	
0	0	0	0	0	462	267	
1	0	0	0	0	463	267	
2	0	0	0	0	472	267	
3	0	0	0	0	481	267	
4	0	0	0	0	481	267	
5	0	0	0	0	499	267	
6	0	0	0	0	506	267	
7	0	0	0	0	496	267	
8	0	0	0	0	527	268	
9	0	0	0	0	501	268	
10	0	0	0	0	519	268	
11	0	0	0	0	503	268	
12	0	0	0	0	508	268	
13	0	0	0	0	508	268	
14	0	0	0	0	517	268	
15	0	0	0	0	510	268	
0	0	0	0	0	517	268	
1	0	0	0	0	496	268	
2	0	0	0	0	506	268	
3	0	0	0	0	522	268	
4	0	0	0	0	526	268	
5	0	0	0	0	502	268	
6	0	0	0	0	507	268	
7	0	0	0	0	525	268	
8	0	0	0	0	513	268	
9	0	0	0	0	521	268	
10	0	0	0	0	512	269	
11	0	0	0	0	502	268	
12	0	0	0	0	530	269	
13	0	0	0	0	526	269	
14	0	0	0	0	528	269	
15	0	0	0	0	515	269	
0	0	0	0	0	545	269	
1	0	0	0	0	545	269	
2	0	0	0	0	531	270	
3	0	0	0	0	497	269	
4	0	0	0	0	499	269	
5	0	0	0	0	497	270	
6	0	0	0	0	518	270	
7	0	0	0	0	510	270	
8	0	0	0	0	512	270	
9	0	0	0	0	534	270	
10	0	0	0	0	643	270	
11	0	0	0	0	721	270	
12	0	0	0	0	595	270	
13	0	0	0	0	393	270	
14	0	0	0	0	453	270	
15	0	0	0	0	453	270	
0	0	0	0	0	480	270	
1	0	0	0	0	477	271	
2	0	0	0	0	472	271	
3	0	0	0	0	491	270	
4	0	0	0	0	501	271	
5	0	0	0	0	505	271	
6	0	0	0	0	507	271	
7	0	0	0	0	487	271	
8	0	0	0	0	505	271	
9	0	0	0	0	489	271	
10	0	0	0	0	511	271	
11	0	0	0	0	527	271	
12	0	0	0	0	528	271	
13	0	0	0	0	523	271	
14	0	0	0	0	553	271	
15	0	0	0	0	530	271	
0	0	0	0	0	556	271	
1	0	0	0	0	571	271	
2	0	0	0	0	562	272	
3	0	0	0	0	568	272	
4	0	0	0	0	557	272	
5	0	0	0	0	529	272	
6	0	0	0	0	507	272	
7	0	0	0	0	467	272	
8	0	0	0	0	447	272	
9	0	0	0	0	446	273	
10	0	0	0	0	441	273	
11	0	0	0	0	437	273	
12	0	0	0	0	459	273	
13	0	0	0	0	467	273	
14	0	0	0	0	455	273	
15	0	0	0	0	464	273	
0	0	0	0	0	495	274	
1	0	0	0	0	454	273	
2	0	0	0	0	510	274	
3	0	0	0	0	480	274	
4	0	0	0	0	487	274	
5	0	0	0	0	484	274	
6	0	0	0	0	495	275	
7	0	0	0	0	504	275	
8	0	0	0	0	489	275	
9	0	0	0	0	498	275	
10	0	0	0	0	488	275	
11	0	0	0	0	510	275	
12	0	0	0	0	496	276	
13	0	0	0	0	505	276	
14	0	0	0	0	497	276	
15	0	0	0	0	493	276	
0	0	0	0	0	497	277	
1	0	0	0	0	484	277	
2	0	0	0	0	496	277	
3	0	0	0	0	487	277	
4	0	0	0	0	497	278	
5	0	0	0	0	505	278	
6	0	0	0	0	496	278	
7	0	0	0	0	487	278	
8	0	0	0	0	515	279	
9	0	0	0	0	519	279	
10	0	0	0	0	536	279	
11	0	0	0	0	524	279	
12	0	0	0	0	515	280	
13	0	0	0	0	505	280	
14	0	0	0	0	496	280	
15	0	0	0	0	465	280	
0	0	0	0	0	481	281	
1	0	0	0	0	492	281	
2	0	0	0	0	488	281	
3	0	0	0	0	508	281	
4	0	0	0	0	548	282	
5	0	0	0	0	648	282	
6	0	0	0	0	695	282	
7	0	0	0	0	483	282	
8	0	0	0	0	412	283	
9	0	0	0	0	461	283	
10	0	0	0	0	456	284	
11	0	0	0	0	473	284	
12	0	0	0	0	457	284	
13	0	0	0	0	448	284	
14	0	0	0	0	483	284	
15	0	0	0	0	476	285	
0	0	0	0	0	507	285	
1	0	0	0	0	504	285	
2	0	0	0	0	490	286	
3	0	0	0	0	499	286	
4	0	0	0	0	526	286	
5	0	0	0	0	530	287	
6	0	0	0	0	529	287	
7	0	0	0	0	510	287	
8	0	0	0	0	525	287	
9	0	0	0	0	515	287	
10	0	0	0	0	545	288	
11	0	0	0	0	535	288	
12	0	0	0	0	558	288	
13	0	0	0	0	527	288	
14	0	0	0	0	564	289	
15	0	0	0	0	538	289	
0	0	0	0	0	525	290	
1	0	0	0	0	502	290	
2	0	0	0	0	469	290	
3	0	0	0	0	445	290	
4	0	0	0	0	443	291	
5	0	0	0	0	415	291	
6	0	0	0	0	468	291	
7	0	0	0	0	452	291	
8	0	0	0	0	428	291	
9	0	0	0	0	448	292	
10	0	0	0	0	485	292	
11	0	0	0	0	459	292	
12	0	0	0	0	498	292	
13	0	0	0	0	485	293	
14	0	0	0	0	477	293	
15	0	0	0	0	512	294	
0	0	0	0	0	504	294	
1	0	0	0	0	499	294	
2	0	0	0	0	509	294	
3	0	0	0	0	518	294	
4	0	0	0	0	521	295	
5	0	0	0	0	512	295	
6	0	0	0	0	519	295	
7	0	0	0	0	523	295	
8	0	0	0	0	536	295	
9	0	0	0	0	517	295	
10	0	0	0	0	520	295	
11	0	0	0	0	531	296	
12	0	0	0	0	531	296	
13	0	0	0	0	519	296	
14	0	0	0	0	505	296	
15	0	0	0	0	504	297	
0	0	0	0	0	511	297	
1	0	0	0	0	499	297	
2	0	0	0	0	506	297	
3	0	0	0	0	548	297	
4	0	0	0	0	517	297	
5	0	0	0	0	541	298	
6	0	0	0	0	533	298	
7	0	0	0	0	535	298	
8	0	0	0	0	548	298	
9	0	0	0	0	517	299	
10	0	0	0	0	501	299	
11	0	0	0	0	528	299	
12	0	0	0	0	508	299	
13	0	0	0	0	520	299	
14	0	0	0	0	520	300	
15	0	0	0	0	564	300	
0	0	0	0	0	592	300	
1	0	0	0	0	736	300	
2	0	0	0	0	671	300	
3	0	0	0	0	411	300	
4	0	0	0	0	471	300	
5	0	0	0	0	502	301	
6	0	0	0	0	483	301	
7	0	0	0	0	483	301	
8	0	0	0	0	466	301	
9	0	0	0	0	502	301	
10	0	0	0	0	505	301	
11	0	0	0	0	513	302	
12	0	0	0	0	523	302	
13	0	0	0	0	540	302	
14	0	0	0	0	576	302	
15	0	0	0	0	531	302	
0	0	0	0	0	552	302	
1	0	0	0	0	550	303	
2	0	0	0	0	572	303	
3	0	0	0	0	561	303	
4	0	0	0	0	555	303	
5	0	0	0	0	567	303	
6	0	0	0	0	577	303	
7	0	0	0	0	583	303	
8	0	0	0	0	579	303	
9	0	0	0	0	578	303	
10	0	0	0	0	589	304	
11	0	0	0	0	566	304	
12	0	0	0	0	555	304	
13	0	0	0	0	481	304	
14	0	0	0	0	476	304	
15	0	0	0	0	470	304	
0	0	0	0	0	444	304	
1	0	0	0	0	476	304	
2	0	0	0	0	437	304	
3	0	0	0	0	437	304	
4	0	0	0	0	467	304	
5	0	0	0	0	456	304	
6	0	0	0	0	489	305	
7	0	0	0	0	495	304	
8	0	0	0	0	504	305	
9	0	0	0	0	458	305	
10	0	0	0	0	500	305	
11	0	0	0	0	496	305	
12	0	0	0	0	507	305	
13	0	0	0	0	501	305	
14	0	0	0	0	503	305	
15	0	0	0	0	496	305	
0	0	0	0	0	507	305	
1	0	0	0	0	493	305	
2	0	0	0	0	534	306	
3	0	0	0	0	485	305	
4	0	0	0	0	508	306	
5	0	0	0	0	493	305	
6	0	0	0	0	511	306	
7	0	0	0	0	506	306	
8	0	0	0	0	519	306	
9	0	0	0	0	510	306	
10	0	0	0	0	508	306	
11	0	0	0	0	522	306	
12	0	0	0	0	547	306	
13	0	0	0	0	529	306	
14	0	0	0	0	519	306	
15	0	0	0	0	537	306	
0	0	0	0	0	545	306	
1	0	0	0	0	521	307	
2	0	0	0	0	478	306	
3	0	0	0	0	469	306	
4	0	0	0	0	472	306	
5	0	0	0	0	485	307	
6	0	0	0	0	503	306	
7	0	0	0	0	521	306	
8	0	0	0	0	578	307	
9	0	0	0	0	701	307	
10	0	0	0	0	705	306	
11	0	0	0	0	435	307	
12	0	0	0	0	371	307	
13	0	0	0	0	451	307	
14	0	0	0	0	467	307	
15	0	0	0	0	471	307	
0	0	0	0	0	492	307	
1	0	0	0	0	478	307	
2	0	0	0	0	483	307	
3	0	0	0	0	489	307	
4	0	0	0	0	504	307	
5	0	0	0	0	500	307	
6	0	0	0	0	534	307	
7	0	0	0	0	503	307	
8	0	0	0	0	506	307	
9	0	0	0	0	526	307	
10	0	0	0	0	528	307	
11	0	0	0	0	525	307	
12	0	0	0	0	556	307	
13	0	0	0	0	560	307	
14	0	0	0	0	577	307	
15	0	0	0	0	563	307	
0	0	0	0	0	580	307	
1	0	0	0	0	574	307	
2	0	0	0	0	580	307	
3	0	0	0	0	563	307	
4	0	0	0	0	538	307	
5	0	0	0	0	481	307	
6	0	0	0	0	474	307	
7	0	0	0	0	463	307	
8	0	0	0	0	466	307	
9	0	0	0	0	435	307	
10	0	0	0	0	456	307	
11	0	0	0	0	454	307	
12	0	0	0	0	481	307	
13	0	0	0	0	460	307	
14	0	0	0	0	483	307	
15	0	0	0	0	489	307	
0	0	0	0	0	487	307	
1	0	0	0	0	478	307	
2	0	0	0	0	499	307	
3	0	0	0	0	500	307	
4	0	0	0	0	524	308	
5	0	0	0	0	502	307	
6	0	0	0	0	513	307	
7	0	0	0	0	523	307	
8	0	0	0	0	516	307	
9	0	0	0	0	491	307	
10	0	0	0	0	528	307	
11	0	0	0	0	499	307	
12	0	0	0	0	512	307	
13	0	0	0	0	501	307	
14	0	0	0	0	508	307	
15	0	0	0	0	500	307	
0	0	0	0	0	514	307	
1	0	0	0	0	517	307	
2	0	0	0	0	522	307	
3	0	0	0	0	514	307	
4	0	0	0	0	530	307	
5	0	0	0	0	563	307	
6	0	0	0	0	542	307	
7	0	0	0	0	548	307	
8	0	0	0	0	531	307	
9	0	0	0	0	515	307	
10	0	0	0	0	494	307	
11	0	0	0	0	498	307	
12	0	0	0	0	490	307	
13	0	0	0	0	487	307	
14	0	0	0	0	484	307	
15	0	0	0	0	524	307	
0	0	0	0	0	580	307	
1	0	0	0	0	716	307	
2	0	0	0	0	700	307	
3	0	0	0	0	428	307	
4	0	0	0	0	404	307	
5	0	0	0	0	463	307	
6	0	0	0	0	484	307	
7	0	0	0	0	491	306	
8	0	0	0	0	472	306	
9	0	0	0	0	491	306	
10	0	0	0	0	488	306	
11	0	0	0	0	496	307	
12	0	0	0	0	496	306	
13	0	0	0	0	486	306	
14	0	0	0	0	493	306	
15	0	0	0	0	491	306	
0	0	0	0	0	530	306	
1	0	0	0	0	525	306	
2	0	0	0	0	537	306	
3	0	0	0	0	526	306	
4	0	0	0	0	529	306	
5	0	0	0	0	547	306	
6	0	0	0	0	568	306	
7	0	0	0	0	546	306	
8	0	0	0	0	546	306	
9	0	0	0	0	562	306	
10	0	0	0	0	559	306	
11	0	0	0	0	519	305	
12	0	0	0	0	507	306	
13	0	0	0	0	491	306	
14	0	0	0	0	462	306	
15	0	0	0	0	442	306	
0	0	0	0	0	449	306	
1	0	0	0	0	436	306	
2	0	0	0	0	445	306	
3	0	0	0	0	444	306	
4	0	0	0	0	481	306	
5	0	0	0	0	457	306	
6	0	0	0	0	472	306	
7	0	0	0	0	491	306	
8	0	0	0	0	489	306	
9	0	0	0	0	478	306	
10	0	0	0	0	484	306	
11	0	0	0	0	491	305	
12	0	0	0	0	500	306	
13	0	0	0	0	480	306	
14	0	0	0	0	506	306	
15	0	0	0	0	500	305	
0	0	0	0	0	494	305	
1	0	0	0	0	479	306	
2	0	0	0	0	500	306	
3	0	0	0	0	494	305	
4	0	0	0	0	521	305	
5	0	0	0	0	483	305	
6	0	0	0	0	508	305	
7	0	0	0	0	493	305	
8	0	0	0	0	523	305	
9	0	0	0	0	483	306	
10	0	0	0	0	513	305	
11	0	0	0	0	511	305	
12	0	0	0	0	512	305	
13	0	0	0	0	504	305	
14	0	0	0	0	535	305	
15	0	0	0	0	542	305	
0	0	0	0	0	545	305	
1	0	0	0	0	528	305	
2	0	0	0	0	532	305	
3	0	0	0	0	526	305	
4	0	0	0	0	546	305	
5	0	0	0	0	491	305	
6	0	0	0	0	509	305	
7	0	0	0	0	488	305	
8	0	0	0	0	492	305	
9	0	0	0	0	509	305	
10	0	0	0	0	524	305	
11	0	0	0	0	620	305	
12	0	0	0	0	715	306	
13	0	0	0	0	587	305	
14	0	0	0	0	417	305	
15	0	0	0	0	447	305	
0	0	0	0	0	459	305	
1	0	0	0	0	455	305	
2	0	0	0	0	471	305	
3	0	0	0	0	480	305	
4	0	0	0	0	468	305	
5	0	0	0	0	475	305	
6	0	0	0	0	511	305	
7	0	0	0	0	476	305	
8	0	0	0	0	498	306	
9	0	0	0	0	484	305	
10	0	0	0	0	505	306	
11	0	0	0	0	492	305	
12	0	0	0	0	517	305	
13	0	0	0	0	512	305	
14	0	0	0	0	536	305	
15	0	0	0	0	538	305	
0	0	0	0	0	544	306	
1	0	0	0	0	540	305	
2	0	0	0	0	576	305	
3	0	0	0	0	541	305	
4	0	0	0	0	564	305	
5	0	0	0	0	563	305	
6	0	0	0	0	540	305	
7	0	0	0	0	529	305	
8	0	0	0	0	497	305	
9	0	0	0	0	446	305	
10	0	0	0	0	468	305	
11	0	0	0	0	440	305	
12	0	0	0	0	462	306	
13	0	0	0	0	452	305	
14	0	0	0	0	485	305	
15	0	0	0	0	471	306	
0	0	0	0	0	472	305	
1	0	0	0	0	486	305	
2	0	0	0	0	483	306	
3	0	0	0	0	501	306	
4	0	0	0	0	494	305	
5	0	0	0	0	488	306	
6	0	0	0	0	502	306	
7	0	0	0	0	489	306	
8	0	0	0	0	506	306	
9	0	0	0	0	502	306	
10	0	0	0	0	489	306	
11	0	0	0	0	498	306	
12	0	0	0	0	494	306	
13	0	0	0	0	517	306	
14	0	0	0	0	501	306	
15	0	0	0	0	495	306	
0	0	0	0	0	513	306	
1	0	0	0	0	489	306	
2	0	0	0	0	496	306	
3	0	0	0	0	486	306	
4	0	0	0	0	521	306	
5	0	0	0	0	504	306	
6	0	0	0	0	512	306	
7	0	0	0	0	527	306	
8	0	0	0	0	533	307	
9	0	0	0	0	534	307	
10	0	0	0	0	523	306	
11	0	0	0	0	552	307	
12	0	0	0	0	544	307	
13	0	0	0	0	551	307	
14	0	0	0	0	536	307	
15	0	0	0	0	504	307	
0	0	0	0	0	518	307	
1	0	0	0	0	505	307	
2	0	0	0	0	488	307	
3	0	0	0	0	519	307	
4	0	0	0	0	528	307	
5	0	0	0	0	559	307	
6	0	0	0	0	655	307	
7	0	0	0	0	713	307	
8	0	0	0	0	614	307	
9	0	0	0	0	415	307	
10	0	0	0	0	473	307	
11	0	0	0	0	476	307	
12	0	0	0	0	485	307	
13	0	0	0	0	469	307	
14	0	0	0	0	499	308	
15	0	0	0	0	480	308	
0	0	0	0	0	494	308	
1	0	0	0	0	494	308	
2	0	0	0	0	511	308	
3	0	0	0	0	522	308	
4	0	0	0	0	524	308	
5	0	0	0	0	511	308	
6	0	0	0	0	527	308	
7	0	0	0	0	535	308	
8	0	0	0	0	523	308	
9	0	0	0	0	543	309	
10	0	0	0	0	529	308	
11	0	0	0	0	535	308	
12	0	0	0	0	557	308	
13	0	0	0	0	554	309	
14	0	0	0	0	584	309	
15	0	0	0	0	570	309	
0	0	0	0	0	570	309	
1	0	0	0	0	538	309	
2	0	0	0	0	496	309	
3	0	0	0	0	482	309	
4	0	0	0	0	477	309	
5	0	0	0	0	458	309	
6	0	0	0	0	454	309	
7	0	0	0	0	456	309	
8	0	0	0	0	473	309	
9	0	0	0	0	484	309	
10	0	0	0	0	489	310	
11	0	0	0	0	473	310	
12	0	0	0	0	498	310	
13	0	0	0	0	524	310	
14	0	0	0	0	500	310	
15	0	0	0	0	508	310	
0	0	0	0	0	504	310	
1	0	0	0	0	514	310	
2	0	0	0	0	522	310	
3	0	0	0	0	499	310	
4	0	0	0	0	516	310	
5	0	0	0	0	495	310	
6	0	0	0	0	512	311	
7	0	0	0	0	503	310	
8	0	0	0	0	521	311	
9	0	0	0	0	512	311	
10	0	0	0	0	515	311	
11	0	0	0	0	519	311	
12	0	0	0	0	510	311	
13	0	0	0	0	507	311	
14	0	0	0	0	512	311	
15	0	0	0	0	503	311	
0	0	0	0	0	513	311	
1	0	0	0	0	506	311	
2	0	0	0	0	528	311	
3	0	0	0	0	523	311	
4	0	0	0	0	500	312	
5	0	0	0	0	521	311	
6	0	0	0	0	513	311	
7	0	0	0	0	525	312	
8	0	0	0	0	552	312	
9	0	0	0	0	532	312	
10	0	0	0	0	533	312	
11	0	0	0	0	537	312	
12	0	0	0	0	522	312	
13	0	0	0	0	491	312	
14	0	0	0	0	482	312	
15	0	0	0	0	494	312	
0	0	0	0	0	484	312	
1	0	0	0	0	496	312	
2	0	0	0	0	545	312	
3	0	0	0	0	574	312	
4	0	0	0	0	675	312	
5	0	0	0	0	694	312	
6	0	0	0	0	475	312	
7	0	0	0	0	439	313	
8	0	0	0	0	472	313	
9	0	0	0	0	441	313	
10	0	0	0	0	472	313	
11	0	0	0	0	473	313	
12	0	0	0	0	489	313	
13	0	0	0	0	489	313	
14	0	0	0	0	493	313	
15	0	0	0	0	482	313	
0	0	0	0	0	505	313	
1	0	0	0	0	507	313	
2	0	0	0	0	501	313	
3	0	0	0	0	513	314	
4	0	0	0	0	512	314	
5	0	0	0	0	515	314	
6	0	0	0	0	524	314	
7	0	0	0	0	536	314	
8	0	0	0	0	536	314	
9	0	0	0	0	547	314	
10	0	0	0	0	573	314	
11	0	0	0	0	568	314	
12	0	0	0	0	568	315	
13	0	0	0	0	590	315	
14	0	0	0	0	556	315	
15	0	0	0	0	515	315	
0	0	0	0	0	508	315	
1	0	0	0	0	473	315	
2	0	0	0	0	457	315	
3	0	0	0	0	466	315	
4	0	0	0	0	438	315	
5	0	0	0	0	461	315	
6	0	0	0	0	483	316	
7	0	0	0	0	460	316	
8	0	0	0	0	496	316	
9	0	0	0	0	473	316	
10	0	0	0	0	479	316	
11	0	0	0	0	500	316	
12	0	0	0	0	518	316	
13	0	0	0	0	511	316	
14	0	0	0	0	519	316	
15	0	0	0	0	511	316	
0	0	0	0	0	499	316	
1	0	0	0	0	505	316	
2	0	0	0	0	518	316	
3	0	0	0	0	517	316	
4	0	0	0	0	514	316	
5	0	0	0	0	491	316	
6	0	0	0	0	534	317	
7	0	0	0	0	524	317	
8	0	0	0	0	526	317	
9	0	0	0	0	505	317	
10	0	0	0	0	532	317	
11	0	0	0	0	514	317	
12	0	0	0	0	526	317	
13	0	0	0	0	516	317	
14	0	0	0	0	516	317	
15	0	0	0	0	511	317	
0	0	0	0	0	526	317	
1	0	0	0	0	523	317	
2	0	0	0	0	536	317	
3	0	0	0	0	532	317	
4	0	0	0	0	527	317	
5	0	0	0	0	540	317	
6	0	0	0	0	507	317	
7	0	0	0	0	529	317	
8	0	0	0	0	553	317	
9	0	0	0	0	520	317	
10	0	0	0	0	530	317	
11	0	0	0	0	559	317	
12	0	0	0	0	537	317	
13	0	0	0	0	547	317	
14	0	0	0	0	534	318	
15	0	0	0	0	518	317	
0	0	0	0	0	500	318	
1	0	0	0	0	511	318	
2	0	0	0	0	501	317	
3	0	0	0	0	498	318	
4	0	0	0	0	535	317	
5	0	0	0	0	558	317	
6	0	0	0	0	643	318	
7	0	0	0	0	736	318	
8	0	0	0	0	566	317	
9	0	0	0	0	425	318	
10	0	0	0	0	456	318	
11	0	0	0	0	459	318	
12	0	0	0	0	491	318	
13	0	0	0	0	466	317	
14	0	0	0	0	499	318	
15	0	0	0	0	485	317	
0	0	0	0	0	495	318	
1	0	0	0	0	494	318	
2	0	0	0	0	524	318	
3	0	0	0	0	496	318	
4	0	0	0	0	523	318	
5	0	0	0	0	516	318	
6	0	0	0	0	523	318	
7	0	0	0	0	525	318	
8	0	0	0	0	516	318	
9	0	0	0	0	528	318	
10	0	0	0	0	561	318	
11	0	0	0	0	537	318	
12	0	0	0	0	569	318	
13	0	0	0	0	562	318	
14	0	0	0	0	572	317	
15	0	0	0	0	560	318	
0	0	0	0	0	561	317	
1	0	0	0	0	519	317	
2	0	0	0	0	510	318	
3	0	0	0	0	482	318	
4	0	0	0	0	476	318	
5	0	0	0	0	447	317	
6	0	0	0	0	470	317	
7	0	0	0	0	463	317	
8	0	0	0	0	474	317	
9	0	0	0	0	466	318	
10	0	0	0	0	494	317	
11	0	0	0	0	496	317	
12	0	0	0	0	509	317	
13	0	0	0	0	487	317	
14	0	0	0	0	496	317	
15	0	0	0	0	516	317	
0	0	0	0	0	510	317	
1	0	0	0	0	512	317	
2	0	0	0	0	504	317	
3	0	0	0	0	491	317	
4	0	0	0	0	508	317	
5	0	0	0	0	450	317	
6	0	0	0	0	519	317	
7	0	0	0	0	503	317	
8	0	0	0	0	527	317	
9	0	0	0	0	514	317	
10	0	0	0	0	535	317	
11	0	0	0	0	504	317	
12	0	0	0	0	513	317	
13	0	0	0	0	530	317	
14	0	0	0	0	498	317	
15	0	0	0	0	480	317	
0	0	0	0	0	521	317	
1	0	0	0	0	510	317	
2	0	0	0	0	508	317	
3	0	0	0	0	528	317	
4	0	0	0	0	537	316	
5	0	0	0	0	512	316	
6	0	0	0	0	523	316	
7	0	0	0	0	519	316	
8	0	0	0	0	514	316	
9	0	0	0	0	508	316	
10	0	0	0	0	523	316	
11	0	0	0	0	506	316	
12	0	0	0	0	528	316	
13	0	0	0	0	516	316	
14	0	0	0	0	515	316	
15	0	0	0	0	531	316	
0	0	0	0	0	521	316	
1	0	0	0	0	521	316	
2	0	0	0	0	551	316	
3	0	0	0	0	551	316	
4	0	0	0	0	549	316	
5	0	0	0	0	538	316	
6	0	0	0	0	531	315	
7	0	0	0	0	492	315	
8	0	0	0	0	496	315	
9	0	0	0	0	504	315	
10	0	0	0	0	504	315	
11	0	0	0	0	488	315	
12	0	0	0	0	527	315	
13	0	0	0	0	559	315	
14	0	0	0	0	708	315	
15	0	0	0	0	700	314	
0	0	0	0	0	426	315	
1	0	0	0	0	407	315	
2	0	0	0	0	472	315	
3	0	0	0	0	476	315	
4	0	0	0	0	451	315	
5	0	0	0	0	478	314	
6	0	0	0	0	477	314	
7	0	0	0	0	480	314	
8	0	0	0	0	504	314	
9	0	0	0	0	476	314	
10	0	0	0	0	504	314	
11	0	0	0	0	501	314	
12	0	0	0	0	503	314	
13	0	0	0	0	536	313	
14	0	0	0	0	524	314	
15	0	0	0	0	499	313	
0	0	0	0	0	506	313	
1	0	0	0	0	533	313	
2	0	0	0	0	551	313	
3	0	0	0	0	555	313	
4	0	0	0	0	584	313	
5	0	0	0	0	573	313	
6	0	0	0	0	578	313	
7	0	0	0	0	598	313	
8	0	0	0	0	579	313	
9	0	0	0	0	560	312	
10	0	0	0	0	491	313	
11	0	0	0	0	458	313	
12	0	0	0	0	464	312	
13	0	0	0	0	444	312	
14	0	0	0	0	446	312	
15	0	0	0	0	452	312	
0	0	0	0	0	481	312	
1	0	0	0	0	453	312	
2	0	0	0	0	483	312	
3	0	0	0	0	454	312	
4	0	0	0	0	489	312	
5	0	0	0	0	472	312	
6	0	0	0	0	480	312	
7	0	0	0	0	480	312	
8	0	0	0	0	514	312	
9	0	0	0	0	493	311	
10	0	0	0	0	509	311	
11	0	0	0	0	499	311	
12	0	0	0	0	507	311	
13	0	0	0	0	508	311	
14	0	0	0	0	507	311	
15	0	0	0	0	509	311	
0	0	0	0	0	520	311	
1	0	0	0	0	503	311	
2	0	0	0	0	515	311	
3	0	0	0	0	519	310	
4	0	0	0	0	500	310	
5	0	0	0	0	504	310	
6	0	0	0	0	518	310	
7	0	0	0	0	513	310	
8	0	0	0	0	501	310	
9	0	0	0	0	504	310	
10	0	0	0	0	523	310	
11	0	0	0	0	502	310	
12	0	0	0	0	519	309	
13	0	0	0	0	516	309	
14	0	0	0	0	537	309	
15	0	0	0	0	503	309	
0	0	0	0	0	529	309	
1	0	0	0	0	523	309	
2	0	0	0	0	541	309	
3	0	0	0	0	561	309	
4	0	0	0	0	543	309	
5	0	0	0	0	533	309	
6	0	0	0	0	547	308	
7	0	0	0	0	539	308	
8	0	0	0	0	504	308	
9	0	0	0	0	489	308	
10	0	0	0	0	492	308	
11	0	0	0	0	508	308	
12	0	0	0	0	511	308	
13	0	0	0	0	532	308	
14	0	0	0	0	627	308	
15	0	0	0	0	777	307	
0	0	0	0	0	647	307	
1	0	0	0	0	371	307	
2	0	0	0	0	371	307	
3	0	0	0	0	451	307	
4	0	0	0	0	499	307	
5	0	0	0	0	456	307	
6	0	0	0	0	466	307	
7	0	0	0	0	479	307	
8	0	0	0	0	510	307	
9	0	0	0	0	499	307	
10	0	0	0	0	508	307	
11	0	0	0	0	496	307	
12	0	0	0	0	521	307	
13	0	0	0	0	524	307	
14	0	0	0	0	534	306	
15	0	0	0	0	526	306	
0	0	0	0	0	533	306	
1	0	0	0	0	520	306	
2	0	0	0	0	560	306	
3	0	0	0	0	558	306	
4	0	0	0	0	575	306	
5	0	0	0	0	570	306	
6	0	0	0	0	598	306	
7	0	0	0	0	567	306	
8	0	0	0	0	579	306	
9	0	0	0	0	545	306	
10	0	0	0	0	548	306	
11	0	0	0	0	485	306	
12	0	0	0	0	480	306	
13	0	0	0	0	423	305	
14	0	0	0	0	446	306	
15	0	0	0	0	428	305	
0	0	0	0	0	466	306	
1	0	0	0	0	463	305	
2	0	0	0	0	459	305	
3	0	0	0	0	459	305	
4	0	0	0	0	467	305	
5	0	0	0	0	464	305	
6	0	0	0	0	499	305	
7	0	0	0	0	496	305	
8	0	0	0	0	512	305	
9	0	0	0	0	504	305	
10	0	0	0	0	515	305	
11	0	0	0	0	484	305	
12	0	0	0	0	505	305	
13	0	0	0	0	508	305	
14	0	0	0	0	501	304	
15	0	0	0	0	492	304	
0	0	0	0	0	504	304	
1	0	0	0	0	485	304	
2	0	0	0	0	508	304	
3	0	0	0	0	495	304	
4	0	0	0	0	507	304	
5	0	0	0	0	485	304	
6	0	0	0	0	532	304	
7	0	0	0	0	489	304	
8	0	0	0	0	499	304	
9	0	0	0	0	488	304	
10	0	0	0	0	514	304	
11	0	0	0	0	504	304	
12	0	0	0	0	506	304	
13	0	0	0	0	524	304	
14	0	0	0	0	518	304	
15	0	0	0	0	495	304	
0	0	0	0	0	510	303	
1	0	0	0	0	520	303	
2	0	0	0	0	551	303	
3	0	0	0	0	523	303	
4	0	0	0	0	541	303	
5	0	0	0	0	548	303	
6	0	0	0	0	512	303	
7	0	0	0	0	488	303	
8	0	0	0	0	500	303	
9	0	0	0	0	470	303	
10	0	0	0	0	498	303	
11	0	0	0	0	487	303	
12	0	0	0	0	527	303	
13	0	0	0	0	571	302	
14	0	0	0	0	748	302	
15	0	0	0	0	678	302	
0	0	0	0	0	404	302	
1	0	0	0	0	378	302	
2	0	0	0	0	462	302	
3	0	0	0	0	440	302	
4	0	0	0	0	457	302	
5	0	0	0	0	483	302	
6	0	0	0	0	477	302	
7	0	0	0	0	495	302	
8	0	0	0	0	486	302	
9	0	0	0	0	497	302	
10	0	0	0	0	492	302	
11	0	0	0	0	462	302	
12	0	0	0	0	516	302	
13	0	0	0	0	495	302	
14	0	0	0	0	525	302	
15	0	0	0	0	514	302	
0	0	0	0	0	536	302	
1	0	0	0	0	536	302	
2	0	0	0	0	536	302	
3	0	0	0	0	557	301	
4	0	0	0	0	587	302	
5	0	0	0	0	558	301	
6	0	0	0	0	568	301	
7	0	0	0	0	553	301	
8	0	0	0	0	551	301	
9	0	0	0	0	523	301	
10	0	0	0	0	496	301	
11	0	0	0	0	447	301	
12	0	0	0	0	440	301	
13	0	0	0	0	439	301	
14	0	0	0	0	460	301	
15	0	0	0	0	433	301	
0	0	0	0	0	460	301	
1	0	0	0	0	445	301	
2	0	0	0	0	481	301	
3	0	0	0	0	483	301	
4	0	0	0	0	485	301	
5	0	0	0	0	495	300	
6	0	0	0	0	496	301	
7	0	0	0	0	498	300	
8	0	0	0	0	490	300	
9	0	0	0	0	511	300	
10	0	0	0	0	481	300	
11	0	0	0	0	486	300	
12	0	0	0	0	512	300	
13	0	0	0	0	499	300	
14	0	0	0	0	516	300	
15	0	0	0	0	505	300	
0	0	0	0	0	516	300	
1	0	0	0	0	500	300	
2	0	0	0	0	518	300	
3	0	0	0	0	498	300	
4	0	0	0	0	497	300	
5	0	0	0	0	497	300	
6	0	0	0	0	525	300	
7	0	0	0	0	520	300	
8	0	0	0	0	539	300	
9	0	0	0	0	520	300	
10	0	0	0	0	529	300	
11	0	0	0	0	536	300	
12	0	0	0	0	538	300	
13	0	0	0	0	527	300	
14	0	0	0	0	555	300	
15	0	0	0	0	523	300	
0	0	0	0	0	511	299	
1	0	0	0	0	498	299	
2	0	0	0	0	498	299	
3	0	0	0	0	489	299	
4	0	0	0	0	484	300	
5	0	0	0	0	489	299	
6	0	0	0	0	577	299	
7	0	0	0	0	653	299	
8	0	0	0	0	759	299	
9	0	0	0	0	559	299	
10	0	0	0	0	429	299	
11	0	0	0	0	429	299	
12	0	0	0	0	471	299	
13	0	0	0	0	459	299	
14	0	0	0	0	459	299	
15	0	0	0	0	468	299	
0	0	0	0	0	494	299	
1	0	0	0	0	484	299	
2	0	0	0	0	509	299	
3	0	0	0	0	508	299	
4	0	0	0	0	521	299	
5	0	0	0	0	490	299	
6	0	0	0	0	495	299	
7	0	0	0	0	520	299	
8	0	0	0	0	531	298	
9	0	0	0	0	516	298	
10	0	0	0	0	539	298	
11	0	0	0	0	544	298	
12	0	0	0	0	549	298	
13	0	0	0	0	554	298	
14	0	0	0	0	603	298	
15	0	0	0	0	566	298	
0	0	0	0	0	576	298	
1	0	0	0	0	552	298	
2	0	0	0	0	537	298	
3	0	0	0	0	497	298	
4	0	0	0	0	473	298	
5	0	0	0	0	454	298	
6	0	0	0	0	442	298	
7	0	0	0	0	448	298	
8	0	0	0	0	463	298	
9	0	0	0	0	470	298	
10	0	0	0	0	488	298	
11	0	0	0	0	481	297	
12	0	0	0	0	467	298	
13	0	0	0	0	480	297	
14	0	0	0	0	496	297	
15	0	0	0	0	502	297	
0	0	0	0	0	518	297	
1	0	0	0	0	495	297	
2	0	0	0	0	508	297	
3	0	0	0	0	476	297	
4	0	0	0	0	506	297	
5	0	0	0	0	519	297	
6	0	0	0	0	509	297	
7	0	0	0	0	524	297	
8	0	0	0	0	515	297	
9	0	0	0	0	500	297	
10	0	0	0	0	523	297	
11	0	0	0	0	492	297	
12	0	0	0	0	514	297	
13	0	0	0	0	495	297	
14	0	0	0	0	524	297	
15	0	0	0	0	509	297	
0	0	0	0	0	515	297	
1	0	0	0	0	507	296	
2	0	0	0	0	519	296	
3	0	0	0	0	517	296	
4	0	0	0	0	540	296	
5	0	0	0	0	535	296	
6	0	0	0	0	550	296	
7	0	0	0	0	531	296	
8	0	0	0	0	485	296	
9	0	0	0	0	497	296	
10	0	0	0	0	477	296	
11	0	0	0	0	484	296	
12	0	0	0	0	491	296	
13	0	0	0	0	495	296	
14	0	0	0	0	532	296	
15	0	0	0	0	611	295	
0	0	0	0	0	730	296	
1	0	0	0	0	635	295	
2	0	0	0	0	413	296	
3	0	0	0	0	444	296	
4	0	0	0	0	483	296	
5	0	0	0	0	445	296	
6	0	0	0	0	492	295	
7	0	0	0	0	464	295	
8	0	0	0	0	502	295	
9	0	0	0	0	492	295	
10	0	0	0	0	499	295	
11	0	0	0	0	492	295	
12	0	0	0	0	504	295	
13	0	0	0	0	507	295	
14	0	0	0	0	518	295	
15	0	0	0	0	524	295	
0	0	0	0	0	519	295	
1	0	0	0	0	518	295	
2	0	0	0	0	541	295	
3	0	0	0	0	537	295	
4	0	0	0	0	560	295	
5	0	0	0	0	577	295	
6	0	0	0	0	569	295	
7	0	0	0	0	570	295	
8	0	0	0	0	572	295	
9	0	0	0	0	551	295	
10	0	0	0	0	542	295	
11	0	0	0	0	509	295	
12	0	0	0	0	496	295	
13	0	0	0	0	455	295	
14	0	0	0	0	461	295	
15	0	0	0	0	446	295	
0	0	0	0	0	455	295	
1	0	0	0	0	481	295	
2	0	0	0	0	450	295	
3	0	0	0	0	455	295	
4	0	0	0	0	483	295	
5	0	0	0	0	492	295	
6	0	0	0	0	498	295	
7	0	0	0	0	484	295	
8	0	0	0	0	521	295	
9	0	0	0	0	500	295	
10	0	0	0	0	505	295	
11	0	0	0	0	489	295	
12	0	0	0	0	523	295	
13	0	0	0	0	517	295	
14	0	0	0	0	489	295	
15	0	0	0	0	524	295	
0	0	0	0	0	518	295	
1	0	0	0	0	488	295	
2	0	0	0	0	528	295	
3	0	0	0	0	497	295	
4	0	0	0	0	517	295	
5	0	0	0	0	496	295	
6	0	0	0	0	507	295	
7	0	0	0	0	509	295	
8	0	0	0	0	519	295	
9	0	0	0	0	537	295	
10	0	0	0	0	527	295	
11	0	0	0	0	525	295	
12	0	0	0	0	580	295	
13	0	0	0	0	522	295	
14	0	0	0	0	552	295	
15	0	0	0	0	505	295	
0	0	0	0	0	487	295	
1	0	0	0	0	482	295	
2	0	0	0	0	512	296	
3	0	0	0	0	489	295	
4	0	0	0	0	489	296	
5	0	0	0	0	508	296	
6	0	0	0	0	575	296	
7	0	0	0	0	705	296	
8	0	0	0	0	702	296	
9	0	0	0	0	445	296	
10	0	0	0	0	424	296	
11	0	0	0	0	444	296	
12	0	0	0	0	462	297	
13	0	0	0	0	451	297	
14	0	0	0	0	471	297	
15	0	0	0	0	452	297	
0	0	0	0	0	499	297	
1	0	0	0	0	494	297	
2	0	0	0	0	501	297	
3	0	0	0	0	500	298	
4	0	0	0	0	520	298	
5	0	0	0	0	504	298	
6	0	0	0	0	511	298	
7	0	0	0	0	521	298	
8	0	0	0	0	524	298	
9	0	0	0	0	525	299	
10	0	0	0	0	543	299	
11	0	0	0	0	558	299	
12	0	0	0	0	556	299	
13	0	0	0	0	556	299	
14	0	0	0	0	579	299	
15	0	0	0	0	583	299	
0	0	0	0	0	545	300	
1	0	0	0	0	550	300	
2	0	0	0	0	534	300	
3	0	0	0	0	509	300	
4	0	0	0	0	458	300	
5	0	0	0	0	465	301	
6	0	0	0	0	434	301	
7	0	0	0	0	470	301	
8	0	0	0	0	467	301	
9	0	0	0	0	467	302	
10	0	0	0	0	489	302	
11	0	0	0	0	467	302	
12	0	0	0	0	486	302	
13	0	0	0	0	462	302	
14	0	0	0	0	499	303	
15	0	0	0	0	504	303	
0	0	0	0	0	506	303	
1	0	0	0	0	508	303	
2	0	0	0	0	527	303	
3	0	0	0	0	497	304	
4	0	0	0	0	511	304	
5	0	0	0	0	487	304	
6	0	0	0	0	524	304	
7	0	0	0	0	513	304	
8	0	0	0	0	513	304	
9	0	0	0	0	495	304	
10	0	0	0	0	511	304	
11	0	0	0	0	510	305	
12	0	0	0	0	524	305	
13	0	0	0	0	524	305	
14	0	0	0	0	533	305	
15	0	0	0	0	491	305	
0	0	0	0	0	525	305	
1	0	0	0	0	502	306	
2	0	0	0	0	526	306	
3	0	0	0	0	533	306	
4	0	0	0	0	554	307	
5	0	0	0	0	548	307	
6	0	0	0	0	551	307	
7	0	0	0	0	529	307	
8	0	0	0	0	520	307	
9	0	0	0	0	499	307	
10	0	0	0	0	494	307	
11	0	0	0	0	491	307	
12	0	0	0	0	515	307	
13	0	0	0	0	505	308	
14	0	0	0	0	531	308	
15	0	0	0	0	591	308	
0	0	0	0	0	704	308	
1	0	0	0	0	659	308	
2	0	0	0	0	439	309	
3	0	0	0	0	427	309	
4	0	0	0	0	486	309	
5	0	0	0	0	464	309	
6	0	0	0	0	500	310	
7	0	0	0	0	472	310	
8	0	0	0	0	472	310	
9	0	0	0	0	472	310	
10	0	0	0	0	516	310	
11	0	0	0	0	502	310	
12	0	0	0	0	502	310	
13	0	0	0	0	504	311	
14	0	0	0	0	511	311	
15	0	0	0	0	503	311	
0	0	0	0	0	504	311	
1	0	0	0	0	501	311	
2	0	0	0	0	534	311	
3	0	0	0	0	537	312	
4	0	0	0	0	526	312	
5	0	0	0	0	574	312	
6	0	0	0	0	551	312	
7	0	0	0	0	552	312	
8	0	0	0	0	561	312	
9	0	0	0	0	519	312	
10	0	0	0	0	519	312	
11	0	0	0	0	490	313	
12	0	0	0	0	463	313	
13	0	0	0	0	435	313	
14	0	0	0	0	439	313	
15	0	0	0	0	429	313	
0	0	0	0	0	465	313	
1	0	0	0	0	429	313	
2	0	0	0	0	437	313	
3	0	0	0	0	476	313	
4	0	0	0	0	483	314	
5	0	0	0	0	469	314	
6	0	0	0	0	481	314	
7	0	0	0	0	489	314	
8	0	0	0	0	513	314	
9	0	0	0	0	500	314	
10	0	0	0	0	492	314	
11	0	0	0	0	518	315	
12	0	0	0	0	519	315	
13	0	0	0	0	501	315	
14	0	0	0	0	511	315	
15	0	0	0	0	507	315	
0	0	0	0	0	514	315	
1	0	0	0	0	518	315	
2	0	0	0	0	537	315	
3	0	0	0	0	519	315	
4	0	0	0	0	524	316	
5	0	0	0	0	525	316	
6	0	0	0	0	526	316	
7	0	0	0	0	508	316	
8	0	0	0	0	524	316	
9	0	0	0	0	502	316	
10	0	0	0	0	501	316	
11	0	0	0	0	482	316	
12	0	0	0	0	507	316	
13	0	0	0	0	520	316	
14	0	0	0	0	535	316	
15	0	0	0	0	518	316	
0	0	0	0	0	534	316	
1	0	0	0	0	519	316	
2	0	0	0	0	492	316	
3	0	0	0	0	493	316	
4	0	0	0	0	514	316	
5	0	0	0	0	489	317	
6	0	0	0	0	519	317	
7	0	0	0	0	529	317	
8	0	0	0	0	572	317	
9	0	0	0	0	707	317	
10	0	0	0	0	694	317	
11	0	0	0	0	441	317	
12	0	0	0	0	444	317	
13	0	0	0	0	483	317	
14	0	0	0	0	492	317	
15	0	0	0	0	488	317	
0	0	0	0	0	489	318	
1	0	0	0	0	478	317	
2	0	0	0	0	503	317	
3	0	0	0	0	487	318	
4	0	0	0	0	521	318	
5	0	0	0	0	511	317	
6	0	0	0	0	536	318	
7	0	0	0	0	496	318	
8	0	0	0	0	531	318	
9	0	0	0	0	526	317	
10	0	0	0	0	556	318	
11	0	0	0	0	536	318	
12	0	0	0	0	542	318	
13	0	0	0	0	565	318	
14	0	0	0	0	552	318	
15	0	0	0	0	542	318	
0	0	0	0	0	585	318	
1	0	0	0	0	561	318	
2	0	0	0	0	563	318	
3	0	0	0	0	559	318	
4	0	0	0	0	510	318	
5	0	0	0	0	482	318	
6	0	0	0	0	478	318	
7	0	0	0	0	467	318	
8	0	0	0	0	462	318	
9	0	0	0	0	453	318	
10	0	0	0	0	477	318	
11	0	0	0	0	461	318	
12	0	0	0	0	489	318	
13	0	0	0	0	476	318	
14	0	0	0	0	490	318	
15	0	0	0	0	507	318	
0	0	0	0	0	488	318	
1	0	0	0	0	494	318	
2	0	0	0	0	488	318	
3	0	0	0	0	508	318	
4	0	0	0	0	519	318	
5	0	0	0	0	515	318	
6	0	0	0	0	499	318	
7	0	0	0	0	496	318	
8	0	0	0	0	519	318	
9	0	0	0	0	510	318	
10	0	0	0	0	515	318	
11	0	0	0	0	509	318	
12	0	0	0	0	507	318	
13	0	0	0	0	509	318	
14	0	0	0	0	516	318	
15	0	0	0	0	500	318	
0	0	0	0	0	522	318	
1	0	0	0	0	519	318	
2	0	0	0	0	530	318	
3	0	0	0	0	511	318	
4	0	0	0	0	536	317	
5	0	0	0	0	518	317	
6	0	0	0	0	518	317	
7	0	0	0	0	518	317	
8	0	0	0	0	515	317	
9	0	0	0	0	519	318	
10	0	0	0	0	555	318	
11	0	0	0	0	531	317	
12	0	0	0	0	535	317	
13	0	0	0	0	556	317	
14	0	0	0	0	523	317	
15	0	0	0	0	497	317	
0	0	0	0	0	517	317	
1	0	0	0	0	494	317	
2	0	0	0	0	508	317	
3	0	0	0	0	503	317	
4	0	0	0	0	536	317	
5	0	0	0	0	561	317	
6	0	0	0	0	652	317	
7	0	0	0	0	698	316	
8	0	0	0	0	505	316	
9	0	0	0	0	400	316	
10	0	0	0	0	487	316	
11	0	0	0	0	459	316	
12	0	0	0	0	468	316	
13	0	0	0	0	481	316	
14	0	0	0	0	501	316	
15	0	0	0	0	480	316	
0	0	0	0	0	496	316	
1	0	0	0	0	511	316	
2	0	0	0	0	487	316	
3	0	0	0	0	493	316	
4	0	0	0	0	507	316	
5	0	0	0	0	504	316	
6	0	0	0	0	527	316	
7	0	0	0	0	521	316	
8	0	0	0	0	535	316	
9	0	0	0	0	528	316	
10	0	0	0	0	553	316	
11	0	0	0	0	533	316	
12	0	0	0	0	552	316	
13	0	0	0	0	551	315	
14	0	0	0	0	560	316	
15	0	0	0	0	566	316	
0	0	0	0	0	521	316	
1	0	0	0	0	512	315	
2	0	0	0	0	511	315	
3	0	0	0	0	470	315	
4	0	0	0	0	455	315	
5	0	0	0	0	466	315	
6	0	0	0	0	465	315	
7	0	0	0	0	471	315	
8	0	0	0	0	489	315	
9	0	0	0	0	467	315	
10	0	0	0	0	478	315	
11	0	0	0	0	478	315	
12	0	0	0	0	487	315	
13	0	0	0	0	495	315	
14	0	0	0	0	505	315	
15	0	0	0	0	470	315	
0	0	0	0	0	510	315	
1	0	0	0	0	504	315	
2	0	0	0	0	497	315	
3	0	0	0	0	499	315	
4	0	0	0	0	501	315	
5	0	0	0	0	515	315	
6	0	0	0	0	513	315	
7	0	0	0	0	490	315	
8	0	0	0	0	520	315	
9	0	0	0	0	510	315	
10	0	0	0	0	515	315	
11	0	0	0	0	501	315	
12	0	0	0	0	510	315	
13	0	0	0	0	504	315	
14	0	0	0	0	505	315	
15	0	0	0	0	528	315	
0	0	0	0	0	519	315	
1	0	0	0	0	503	315	
2	0	0	0	0	501	315	
3	0	0	0	0	512	314	
4	0	0	0	0	519	315	
5	0	0	0	0	512	315	
6	0	0	0	0	497	315	
7	0	0	0	0	516	315	
8	0	0	0	0	527	314	
9	0	0	0	0	529	315	
10	0	0	0	0	536	315	
11	0	0	0	0	526	314	
12	0	0	0	0	529	314	
13	0	0	0	0	560	314	
14	0	0	0	0	532	314	
15	0	0	0	0	508	315	
0	0	0	0	0	508	314	
1	0	0	0	0	497	314	
2	0	0	0	0	512	314	
3	0	0	0	0	503	314	
4	0	0	0	0	517	314	
5	0	0	0	0	534	314	
6	0	0	0	0	582	314	
7	0	0	0	0	686	314	
8	0	0	0	0	671	314	
9	0	0	0	0	424	314	
10	0	0	0	0	427	314	
11	0	0	0	0	451	314	
12	0	0	0	0	483	314	
13	0	0	0	0	459	314	
14	0	0	0	0	496	314	
15	0	0	0	0	465	314	
0	0	0	0	0	492	314	
1	0	0	0	0	489	313	
2	0	0	0	0	496	313	
3	0	0	0	0	514	313	
4	0	0	0	0	511	313	
5	0	0	0	0	496	313	
6	0	0	0	0	525	313	
7	0	0	0	0	511	313	
8	0	0	0	0	515	313	
9	0	0	0	0	519	313	
10	0	0	0	0	532	313	
11	0	0	0	0	547	313	
12	0	0	0	0	570	313	
13	0	0	0	0	553	313	
14	0	0	0	0	564	313	
15	0	0	0	0	575	313	
0	0	0	0	0	541	313	
1	0	0	0	0	539	313	
2	0	0	0	0	502	313	
3	0	0	0	0	491	313	
4	0	0	0	0	455	313	
5	0	0	0	0	460	313	
6	0	0	0	0	477	313	
7	0	0	0	0	452	313	
8	0	0	0	0	467	313	
9	0	0	0	0	469	313	
10	0	0	0	0	468	313	
11	0	0	0	0	481	313	
12	0	0	0	0	494	312	
13	0	0	0	0	489	312	
14	0	0	0	0	498	313	
15	0	0	0	0	486	312	
0	0	0	0	0	529	312	
1	0	0	0	0	505	312	
2	0	0	0	0	513	312	
3	0	0	0	0	516	312	
4	0	0	0	0	515	312	
5	0	0	0	0	507	312	
6	0	0	0	0	502	312	
7	0	0	0	0	512	312	
8	0	0	0	0	481	312	
9	0	0	0	0	502	312	
10	0	0	0	0	515	312	
11	0	0	0	0	494	312	
12	0	0	0	0	520	312	
13	0	0	0	0	509	312	
14	0	0	0	0	526	312	
15	0	0	0	0	500	312	
0	0	0	0	0	503	312	
1	0	0	0	0	509	312	
2	0	0	0	0	509	312	
3	0	0	0	0	496	312	
4	0	0	0	0	513	312	
5	0	0	0	0	519	312	
6	0	0	0	0	539	312	
7	0	0	0	0	519	312	
8	0	0	0	0	551	312	
9	0	0	0	0	529	312	
10	0	0	0	0	542	312	
11	0	0	0	0	511	312	
12	0	0	0	0	489	312	
13	0	0	0	0	495	312	
14	0	0	0	0	501	312	
15	0	0	0	0	482	312	
0	0	0	0	0	491	312	
1	0	0	0	0	535	312	
2	0	0	0	0	582	312	
3	0	0	0	0	679	312	
4	0	0	0	0	671	312	
5	0	0	0	0	439	312	
6	0	0	0	0	423	312	
7	0	0	0	0	478	312	
8	0	0	0	0	472	312	
9	0	0	0	0	456	312	
10	0	0	0	0	490	312	
11	0	0	0	0	463	311	
12	0	0	0	0	471	311	
13	0	0	0	0	509	311	
14	0	0	0	0	483	311	
15	0	0	0	0	508	312	
0	0	0	0	0	481	311	
1	0	0	0	0	490	311	
2	0	0	0	0	529	311	
3	0	0	0	0	505	311	
4	0	0	0	0	524	311	
5	0	0	0	0	526	311	
6	0	0	0	0	565	311	
7	0	0	0	0	537	311	
8	0	0	0	0	554	311	
9	0	0	0	0	560	311	
10	0	0	0	0	556	311	
11	0	0	0	0	560	311	
12	0	0	0	0	583	311	
13	0	0	0	0	534	310	
14	0	0	0	0	519	311	
15	0	0	0	0	477	310	
0	0	0	0	0	461	311	
1	0	0	0	0	454	310	
2	0	0	0	0	463	310	
3	0	0	0	0	460	310	
4	0	0	0	0	465	310	
5	0	0	0	0	467	310	
6	0	0	0	0	470	310	
7	0	0	0	0	494	310	
8	0	0	0	0	487	310	
9	0	0	0	0	485	310	
10	0	0	0	0	526	310	
11	0	0	0	0	500	310	
12	0	0	0	0	519	310	
13	0	0	0	0	492	310	
14	0	0	0	0	498	310	
15	0	0	0	0	515	310	
0	0	0	0	0	527	310	
1	0	0	0	0	501	310	
2	0	0	0	0	502	310	
3	0	0	0	0	509	309	
4	0	0	0	0	519	310	
5	0	0	0	0	503	309	
6	0	0	0	0	503	309	
7	0	0	0	0	516	309	
8	0	0	0	0	523	309	
9	0	0	0	0	508	309	
10	0	0	0	0	509	309	
11	0	0	0	0	525	309	
12	0	0	0	0	507	309	
13	0	0	0	0	519	309	
14	0	0	0	0	530	309	
15	0	0	0	0	531	309	
0	0	0	0	0	538	309	
1	0	0	0	0	519	309	
2	0	0	0	0	560	308	
3	0	0	0	0	522	308	
4	0	0	0	0	530	308	
5	0	0	0	0	501	308	
6	0	0	0	0	504	308	
7	0	0	0	0	497	308	
8	0	0	0	0	485	308	
9	0	0	0	0	513	308	
10	0	0	0	0	527	308	
11	0	0	0	0	550	308	
12	0	0	0	0	646	308	
13	0	0	0	0	705	308	
14	0	0	0	0	567	308	
15	0	0	0	0	404	307	
0	0	0	0	0	444	308	
1	0	0	0	0	461	308	
2	0	0	0	0	472	307	
3	0	0	0	0	472	307	
4	0	0	0	0	488	307	
5	0	0	0	0	469	307	
6	0	0	0	0	497	307	
7	0	0	0	0	500	307	
8	0	0	0	0	499	307	
9	0	0	0	0	513	307	
10	0	0	0	0	525	307	
11	0	0	0	0	505	307	
12	0	0	0	0	524	307	
13	0	0	0	0	527	307	
14	0	0	0	0	545	307	
15	0	0	0	0	543	307	
0	0	0	0	0	571	307	
1	0	0	0	0	545	307	
2	0	0	0	0	561	307	
3	0	0	0	0	543	307	
4	0	0	0	0	585	307	
5	0	0	0	0	547	307	
6	0	0	0	0	552	307	
7	0	0	0	0	527	307	
8	0	0	0	0	495	307	
9	0	0	0	0	459	307	
10	0	0	0	0	440	307	
11	0	0	0	0	443	307	
12	0	0	0	0	432	307	
13	0	0	0	0	461	307	
14	0	0	0	0	463	307	
15	0	0	0	0	484	306	
0	0	0	0	0	480	307	
1	0	0	0	0	463	307	
2	0	0	0	0	497	306	
3	0	0	0	0	500	306	
4	0	0	0	0	513	306	
5	0	0	0	0	505	306	
6	0	0	0	0	512	306	
7	0	0	0	0	514	306	
8	0	0	0	0	508	306	
9	0	0	0	0	518	306	
10	0	0	0	0	511	306	
11	0	0	0	0	496	306	
12	0	0	0	0	504	306	
13	0	0	0	0	495	306	
14	0	0	0	0	530	306	
15	0	0	0	0	520	306	
0	0	0	0	0	499	305	
1	0	0	0	0	524	305	
2	0	0	0	0	525	305	
3	0	0	0	0	498	305	
4	0	0	0	0	522	305	
5	0	0	0	0	529	305	
6	0	0	0	0	508	305	
7	0	0	0	0	506	305	
8	0	0	0	0	515	305	
9	0	0	0	0	497	305	
10	0	0	0	0	509	305	
11	0	0	0	0	529	305	
12	0	0	0	0	523	305	
13	0	0	0	0	548	305	
14	0	0	0	0	551	305	
15	0	0	0	0	534	304	
0	0	0	0	0	531	305	
1	0	0	0	0	526	304	
2	0	0	0	0	520	305	
3	0	0	0	0	499	304	
4	0	0	0	0	504	304	
5	0	0	0	0	495	304	
6	0	0	0	0	516	304	
7	0	0	0	0	529	304	
8	0	0	0	0	584	304	
9	0	0	0	0	621	304	
10	0	0	0	0	723	304	
11	0	0	0	0	547	304	
12	0	0	0	0	398	304	
13	0	0	0	0	449	304	
14	0	0	0	0	474	304	
15	0	0	0	0	466	304	
0	0	0	0	0	469	304	
1	0	0	0	0	476	304	
2	0	0	0	0	489	304	
3	0	0	0	0	489	304	
4	0	0	0	0	481	304	
5	0	0	0	0	474	303	
6	0	0	0	0	524	303	
7	0	0	0	0	498	303	
8	0	0	0	0	521	303	
9	0	0	0	0	476	303	
10	0	0	0	0	515	303	
11	0	0	0	0	499	303	
12	0	0	0	0	540	303	
13	0	0	0	0	556	303	
14	0	0	0	0	558	303	
15	0	0	0	0	560	303	
0	0	0	0	0	579	303	
1	0	0	0	0	572	303	
2	0	0	0	0	577	302	
3	0	0	0	0	531	302	
4	0	0	0	0	524	302	
5	0	0	0	0	489	302	
6	0	0	0	0	473	303	
7	0	0	0	0	451	302	
8	0	0	0	0	464	303	
9	0	0	0	0	457	302	
10	0	0	0	0	462	302	
11	0	0	0	0	463	302	
12	0	0	0	0	477	303	
13	0	0	0	0	470	302	
14	0	0	0	0	485	302	
15	0	0	0	0	486	302	
0	0	0	0	0	505	302	
1	0	0	0	0	502	302	
2	0	0	0	0	524	302	
3	0	0	0	0	523	302	
4	0	0	0	0	500	302	
5	0	0	0	0	502	302	
6	0	0	0	0	516	302	
7	0	0	0	0	504	302	
8	0	0	0	0	497	302	
9	0	0	0	0	497	302	
10	0	0	0	0	489	301	
11	0	0	0	0	520	301	
12	0	0	0	0	512	301	
13	0	0	0	0	517	301	
14	0	0	0	0	536	301	
15	0	0	0	0	497	301	
0	0	0	0	0	495	301	
1	0	0	0	0	510	301	
2	0	0	0	0	507	301	
3	0	0	0	0	524	301	
4	0	0	0	0	516	301	
5	0	0	0	0	525	301	
6	0	0	0	0	516	301	
7	0	0	0	0	519	301	
8	0	0	0	0	519	300	
9	0	0	0	0	520	300	
10	0	0	0	0	512	300	
11	0	0	0	0	519	300	
12	0	0	0	0	520	300	
13	0	0	0	0	531	300	
14	0	0	0	0	539	300	
15	0	0	0	0	532	300	
0	0	0	0	0	510	300	
1	0	0	0	0	555	300	
2	0	0	0	0	536	300	
3	0	0	0	0	499	300	
4	0	0	0	0	500	300	
5	0	0	0	0	496	300	
6	0	0	0	0	511	300	
7	0	0	0	0	513	300	
8	0	0	0	0	545	300	
9	0	0	0	0	625	300	
10	0	0	0	0	733	300	
11	0	0	0	0	547	300	
12	0	0	0	0	392	300	
13	0	0	0	0	455	299	
14	0	0	0	0	468	300	
15	0	0	0	0	483	299	
0	0	0	0	0	476	299	
1	0	0	0	0	481	299	
2	0	0	0	0	497	299	
3	0	0	0	0	483	299	
4	0	0	0	0	519	299	
5	0	0	0	0	487	299	
6	0	0	0	0	529	299	
7	0	0	0	0	504	299	
8	0	0	0	0	516	299	
9	0	0	0	0	532	299	
10	0	0	0	0	532	299	
11	0	0	0	0	526	299	
12	0	0	0	0	542	299	
13	0	0	0	0	545	299	
14	0	0	0	0	539	299	
15	0	0	0	0	535	299	
0	0	0	0	0	556	299	
1	0	0	0	0	559	299	
2	0	0	0	0	562	298	
3	0	0	0	0	545	298	
4	0	0	0	0	530	298	
5	0	0	0	0	506	298	
6	0	0	0	0	473	298	
7	0	0	0	0	463	298	
8	0	0	0	0	440	298	
9	0	0	0	0	453	298	
10	0	0	0	0	461	298	
11	0	0	0	0	464	298	
12	0	0	0	0	457	298	
13	0	0	0	0	480	298	
14	0	0	0	0	480	298	
15	0	0	0	0	491	298	
0	0	0	0	0	496	298	
1	0	0	0	0	515	298	
2	0	0	0	0	497	297	
3	0	0	0	0	512	297	
4	0	0	0	0	488	297	
5	0	0	0	0	472	297	
6	0	0	0	0	509	297	
7	0	0	0	0	499	297	
8	0	0	0	0	505	297	
9	0	0	0	0	505	297	
10	0	0	0	0	513	297	
11	0	0	0	0	516	297	
12	0	0	0	0	516	297	
13	0	0	0	0	500	297	
14	0	0	0	0	483	297	
15	0	0	0	0	513	297	
0	0	0	0	0	535	297	
1	0	0	0	0	503	297	
2	0	0	0	0	523	297	
3	0	0	0	0	498	297	
4	0	0	0	0	507	296	
5	0	0	0	0	527	296	
6	0	0	0	0	501	296	
7	0	0	0	0	510	297	
8	0	0	0	0	492	296	
9	0	0	0	0	523	296	
10	0	0	0	0	514	296	
11	0	0	0	0	517	296	
12	0	0	0	0	530	296	
13	0	0	0	0	524	296	
14	0	0	0	0	537	296	
15	0	0	0	0	496	296	
0	0	0	0	0	519	296	
1	0	0	0	0	542	296	
2	0	0	0	0	543	296	
3	0	0	0	0	541	296	
4	0	0	0	0	548	296	
5	0	0	0	0	518	296	
6	0	0	0	0	506	296	
7	0	0	0	0	506	296	
8	0	0	0	0	481	296	
9	0	0	0	0	495	295	
10	0	0	0	0	499	295	
11	0	0	0	0	535	295	
12	0	0	0	0	589	295	
13	0	0	0	0	703	295	
14	0	0	0	0	654	295	
15	0	0	0	0	401	295	
0	0	0	0	0	425	295	
1	0	0	0	0	455	295	
2	0	0	0	0	470	295	
3	0	0	0	0	461	295	
4	0	0	0	0	488	295	
5	0	0	0	0	478	295	
6	0	0	0	0	492	295	
7	0	0	0	0	487	295	
8	0	0	0	0	501	295	
9	0	0	0	0	506	295	
10	0	0	0	0	503	295	
11	0	0	0	0	508	295	
12	0	0	0	0	528	295	
13	0	0	0	0	517	295	
14	0	0	0	0	501	295	
15	0	0	0	0	520	295	
0	0	0	0	0	539	295	
1	0	0	0	0	544	295	
2	0	0	0	0	556	295	
3	0	0	0	0	561	295	
4	0	0	0	0	575	295	
5	0	0	0	0	575	295	
6	0	0	0	0	571	294	
7	0	0	0	0	543	294	
8	0	0	0	0	488	295	
9	0	0	0	0	494	294	
10	0	0	0	0	481	295	
11	0	0	0	0	443	294	
12	0	0	0	0	438	294	
13	0	0	0	0	454	294	
14	0	0	0	0	456	294	
15	0	0	0	0	450	294	
0	0	0	0	0	483	294	
1	0	0	0	0	462	294	
2	0	0	0	0	485	294	
3	0	0	0	0	497	294	
4	0	0	0	0	492	294	
5	0	0	0	0	520	294	
6	0	0	0	0	496	294	
7	0	0	0	0	500	294	
8	0	0	0	0	509	294	
9	0	0	0	0	491	294	
10	0	0	0	0	531	293	
11	0	0	0	0	489	293	
12	0	0	0	0	513	294	
13	0	0	0	0	487	293	
14	0	0	0	0	531	293	
15	0	0	0	0	500	293	
0	0	0	0	0	510	293	
1	0	0	0	0	513	294	
2	0	0	0	0	509	293	
3	0	0	0	0	505	293	
4	0	0	0	0	519	293	
5	0	0	0	0	518	293	
6	0	0	0	0	516	293	
7	0	0	0	0	506	293	
8	0	0	0	0	509	293	
9	0	0	0	0	507	293	
10	0	0	0	0	528	293	
11	0	0	0	0	495	293	
12	0	0	0	0	519	293	
13	0	0	0	0	515	293	
14	0	0	0	0	530	292	
15	0	0	0	0	508	292	
0	0	0	0	0	519	292	
1	0	0	0	0	519	292	
2	0	0	0	0	526	292	
3	0	0	0	0	524	292	
4	0	0	0	0	532	292	
5	0	0	0	0	491	292	
6	0	0	0	0	541	292	
7	0	0	0	0	550	292	
8	0	0	0	0	558	292	
9	0	0	0	0	524	292	
10	0	0	0	0	519	292	
11	0	0	0	0	479	292	
12	0	0	0	0	506	292	
13	0	0	0	0	481	292	
14	0	0	0	0	477	292	
15	0	0	0	0	508	292	
0	0	0	0	0	544	291	
1	0	0	0	0	636	291	
2	0	0	0	0	721	291	
3	0	0	0	0	547	291	
4	0	0	0	0	391	291	
5	0	0	0	0	455	291	
6	0	0	0	0	458	291	
7	0	0	0	0	470	291	
8	0	0	0	0	486	291	
9	0	0	0	0	481	291	
10	0	0	0	0	489	291	
11	0	0	0	0	511	291	
12	0	0	0	0	487	291	
13	0	0	0	0	491	291	
14	0	0	0	0	509	291	
15	0	0	0	0	513	291	
0	0	0	0	0	523	291	
1	0	0	0	0	528	291	
2	0	0	0	0	527	291	
3	0	0	0	0	532	291	
4	0	0	0	0	532	291	
5	0	0	0	0	548	291	
6	0	0	0	0	546	291	
7	0	0	0	0	543	291	
8	0	0	0	0	576	291	
9	0	0	0	0	569	291	
10	0	0	0	0	579	291	
11	0	0	0	0	541	291	
12	0	0	0	0	547	291	
13	0	0	0	0	500	291	
14	0	0	0	0	485	291	
15	0	0	0	0	459	291	
0	0	0	0	0	458	290	
1	0	0	0	0	435	291	
2	0	0	0	0	481	290	
3	0	0	0	0	469	290	
4	0	0	0	0	448	290	
5	0	0	0	0	487	290	
6	0	0	0	0	468	290	
7	0	0	0	0	479	290	
8	0	0	0	0	476	290	
9	0	0	0	0	497	290	
10	0	0	0	0	485	290	
11	0	0	0	0	504	290	
12	0	0	0	0	507	290	
13	0	0	0	0	502	290	
14	0	0	0	0	533	290	
15	0	0	0	0	512	290	
0	0	0	0	0	511	290	
1	0	0	0	0	507	290	
2	0	0	0	0	498	290	
3	0	0	0	0	514	290	
4	0	0	0	0	519	290	
5	0	0	0	0	499	290	
6	0	0	0	0	518	289	
7	0	0	0	0	497	290	
8	0	0	0	0	534	289	
9	0	0	0	0	497	289	
10	0	0	0	0	517	289	
11	0	0	0	0	507	289	
12	0	0	0	0	499	289	
13	0	0	0	0	509	289	
14	0	0	0	0	519	289	
15	0	0	0	0	516	289	
0	0	0	0	0	531	289	
1	0	0	0	0	507	289	
2	0	0	0	0	517	289	
3	0	0	0	0	508	289	
4	0	0	0	0	540	289	
5	0	0	0	0	498	289	
6	0	0	0	0	509	289	
7	0	0	0	0	514	289	
8	0	0	0	0	519	289	
9	0	0	0	0	511	289	
10	0	0	0	0	534	289	
11	0	0	0	0	545	289	
12	0	0	0	0	547	289	
13	0	0	0	0	526	289	
14	0	0	0	0	561	288	
15	0	0	0	0	521	289	
0	0	0	0	0	492	289	
1	0	0	0	0	483	288	
2	0	0	0	0	482	288	
3	0	0	0	0	488	288	
4	0	0	0	0	517	288	
5	0	0	0	0	545	288	
6	0	0	0	0	568	288	
7	0	0	0	0	697	288	
8	0	0	0	0	632	288	
9	0	0	0	0	403	288	
10	0	0	0	0	430	288	
11	0	0	0	0	465	288	
12	0	0	0	0	462	288	
13	0	0	0	0	471	288	
14	0	0	0	0	489	288	
15	0	0	0	0	478	288	
0	0	0	0	0	499	288	
1	0	0	0	0	482	288	
2	0	0	0	0	500	288	
3	0	0	0	0	487	288	
4	0	0	0	0	508	288	
5	0	0	0	0	525	288	
6	0	0	0	0	493	288	
7	0	0	0	0	522	288	
8	0	0	0	0	527	288	
9	0	0	0	0	528	287	
10	0	0	0	0	540	288	
11	0	0	0	0	521	288	
12	0	0	0	0	563	288	
13	0	0	0	0	561	288	
14	0	0	0	0	556	288	
15	0	0	0	0	589	288	
0	0	0	0	0	567	287	
1	0	0	0	0	542	287	
2	0	0	0	0	519	287	
3	0	0	0	0	472	287	
4	0	0	0	0	460	287	
5	0	0	0	0	450	287	
6	0	0	0	0	461	287	
7	0	0	0	0	471	287	
8	0	0	0	0	471	287	
9	0	0	0	0	476	287	
10	0	0	0	0	465	287	
11	0	0	0	0	497	287	
12	0	0	0	0	485	287	
13	0	0	0	0	476	287	
14	0	0	0	0	483	287	
15	0	0	0	0	496	287	
0	0	0	0	0	495	287	
1	0	0	0	0	492	287	
2	0	0	0	0	512	287	
3	0	0	0	0	500	287	
4	0	0	0	0	501	287	
5	0	0	0	0	503	287	
6	0	0	0	0	517	287	
7	0	0	0	0	488	287	
8	0	0	0	0	513	287	
9	0	0	0	0	495	287	
10	0	0	0	0	517	287	
11	0	0	0	0	527	287	
12	0	0	0	0	500	287	
13	0	0	0	0	506	287	
14	0	0	0	0	510	287	
15	0	0	0	0	520	287	
0	0	0	0	0	534	287	
1	0	0	0	0	473	287	
2	0	0	0	0	523	286	
3	0	0	0	0	509	286	
4	0	0	0	0	532	287	
5	0	0	0	0	512	286	
6	0	0	0	0	503	287	
7	0	0	0	0	518	286	
8	0	0	0	0	510	286	
9	0	0	0	0	510	286	
10	0	0	0	0	521	286	
11	0	0	0	0	504	286	
12	0	0	0	0	526	286	
13	0	0	0	0	507	286	
14	0	0	0	0	523	286	
15	0	0	0	0	508	286	
0	0	0	0	0	529	286	
1	0	0	0	0	535	286	
2	0	0	0	0	520	286	
3	0	0	0	0	522	286	
4	0	0	0	0	577	286	
5	0	0	0	0	549	286	
6	0	0	0	0	544	286	
7	0	0	0	0	496	286	
8	0	0	0	0	505	286	
9	0	0	0	0	502	286	
10	0	0	0	0	496	286	
11	0	0	0	0	510	286	
12	0	0	0	0	541	286	
13	0	0	0	0	594	285	
14	0	0	0	0	723	286	
15	0	0	0	0	611	286	
0	0	0	0	0	400	286	
1	0	0	0	0	448	286	
2	0	0	0	0	475	286	
3	0	0	0	0	470	285	
4	0	0	0	0	479	285	
5	0	0	0	0	477	286	
6	0	0	0	0	467	285	
7	0	0	0	0	498	286	
8	0	0	0	0	489	286	
9	0	0	0	0	497	285	
10	0	0	0	0	518	285	
11	0	0	0	0	502	285	
12	0	0	0	0	506	285	
13	0	0	0	0	508	285	
14	0	0	0	0	534	285	
15	0	0	0	0	527	285	
0	0	0	0	0	534	285	
1	0	0	0	0	545	285	
2	0	0	0	0	562	285	
3	0	0	0	0	560	285	
4	0	0	0	0	567	285	
5	0	0	0	0	568	285	
6	0	0	0	0	557	285	
7	0	0	0	0	560	285	
8	0	0	0	0	544	285	
9	0	0	0	0	503	285	
10	0	0	0	0	480	285	
11	0	0	0	0	458	285	
12	0	0	0	0	462	285	
13	0	0	0	0	447	285	
14	0	0	0	0	431	285	
15	0	0	0	0	442	285	
0	0	0	0	0	466	285	
1	0	0	0	0	467	284	
2	0	0	0	0	484	285	
3	0	0	0	0	473	284	
4	0	0	0	0	503	284	
5	0	0	0	0	490	284	
6	0	0	0	0	480	284	
7	0	0	0	0	495	284	
8	0	0	0	0	492	284	
9	0	0	0	0	513	284	
10	0	0	0	0	504	284	
11	0	0	0	0	511	284	
12	0	0	0	0	516	284	
13	0	0	0	0	509	284	
14	0	0	0	0	504	284	
15	0	0	0	0	512	284	
0	0	0	0	0	516	284	
1	0	0	0	0	481	284	
2	0	0	0	0	516	284	
3	0	0	0	0	511	284	
4	0	0	0	0	519	284	
5	0	0	0	0	520	284	
6	0	0	0	0	521	284	
7	0	0	0	0	510	284	
8	0	0	0	0	499	284	
9	0	0	0	0	526	284	
10	0	0	0	0	508	284	
11	0	0	0	0	510	284	
12	0	0	0	0	515	284	
13	0	0	0	0	523	284	
14	0	0	0	0	515	284	
15	0	0	0	0	519	284	
0	0	0	0	0	519	284	
1	0	0	0	0	511	283	
2	0	0	0	0	526	283	
3	0	0	0	0	527	283	
4	0	0	0	0	512	284	
5	0	0	0	0	516	283	
6	0	0	0	0	519	283	
7	0	0	0	0	540	283	
8	0	0	0	0	543	283	
9	0	0	0	0	535	283	
10	0	0	0	0	551	283	
11	0	0	0	0	540	283	
12	0	0	0	0	511	283	
13	0	0	0	0	497	283	
14	0	0	0	0	493	283	
15	0	0	0	0	508	283	
0	0	0	0	0	497	283	
1	0	0	0	0	528	283	
2	0	0	0	0	560	283	
3	0	0	0	0	651	283	
4	0	0	0	0	717	283	
5	0	0	0	0	507	283	
6	0	0	0	0	383	283	
7	0	0	0	0	441	283	
8	0	0	0	0	457	283	
9	0	0	0	0	468	282	
10	0	0	0	0	491	283	
11	0	0	0	0	469	282	
12	0	0	0	0	499	282	
13	0	0	0	0	486	282	
14	0	0	0	0	492	283	
15	0	0	0	0	497	283	
0	0	0	0	0	503	283	
1	0	0	0	0	512	282	
2	0	0	0	0	528	282	
3	0	0	0	0	523	282	
4	0	0	0	0	525	282	
5	0	0	0	0	528	282	
6	0	0	0	0	527	282	
7	0	0	0	0	544	282	
8	0	0	0	0	550	281	
9	0	0	0	0	555	282	
10	0	0	0	0	574	282	
11	0	0	0	0	558	282	
12	0	0	0	0	572	281	
13	0	0	0	0	563	282	
14	0	0	0	0	542	282	
15	0	0	0	0	504	281	
0	0	0	0	0	483	281	
1	0	0	0	0	440	281	
2	0	0	0	0	456	281	
3	0	0	0	0	430	281	
4	0	0	0	0	453	281	
5	0	0	0	0	477	281	
6	0	0	0	0	469	281	
7	0	0	0	0	460	281	
8	0	0	0	0	484	281	
9	0	0	0	0	478	281	
10	0	0	0	0	492	281	
11	0	0	0	0	487	281	
12	0	0	0	0	519	281	
13	0	0	0	0	477	281	
14	0	0	0	0	517	281	
15	0	0	0	0	490	281	
0	0	0	0	0	497	281	
1	0	0	0	0	498	280	
2	0	0	0	0	501	280	
3	0	0	0	0	501	280	
4	0	0	0	0	513	280	
5	0	0	0	0	496	280	
6	0	0	0	0	533	280	
7	0	0	0	0	485	280	
8	0	0	0	0	519	280	
9	0	0	0	0	505	280	
10	0	0	0	0	522	280	
11	0	0	0	0	501	280	
12	0	0	0	0	516	280	
13	0	0	0	0	504	280	
14	0	0	0	0	525	280	
15	0	0	0	0	511	280	
0	0	0	0	0	515	280	
1	0	0	0	0	505	280	
2	0	0	0	0	499	280	
3	0	0	0	0	505	280	
4	0	0	0	0	521	280	
5	0	0	0	0	504	280	
6	0	0	0	0	509	280	
7	0	0	0	0	531	279	
8	0	0	0	0	498	279	
9	0	0	0	0	519	279	
10	0	0	0	0	538	279	
11	0	0	0	0	514	279	
12	0	0	0	0	519	279	
13	0	0	0	0	543	279	
14	0	0	0	0	528	279	
15	0	0	0	0	532	279	
0	0	0	0	0	521	279	
1	0	0	0	0	484	279	
2	0	0	0	0	492	279	
3	0	0	0	0	492	279	
4	0	0	0	0	509	279	
5	0	0	0	0	499	279	
6	0	0	0	0	557	279	
7	0	0	0	0	610	278	
8	0	0	0	0	715	278	
9	0	0	0	0	621	279	
10	0	0	0	0	411	279	
11	0	0	0	0	436	278	
12	0	0	0	0	469	278	
13	0	0	0	0	480	278	
14	0	0	0	0	472	278	
15	0	0	0	0	469	278	
0	0	0	0	0	496	278	
1	0	0	0	0	486	278	
2	0	0	0	0	501	278	
3	0	0	0	0	506	278	
4	0	0	0	0	507	278	
5	0	0	0	0	513	278	
6	0	0	0	0	513	278	
7	0	0	0	0	529	278	
8	0	0	0	0	524	278	
9	0	0	0	0	521	278	
10	0	0	0	0	535	278	
11	0	0	0	0	544	278	
12	0	0	0	0	574	278	
13	0	0	0	0	548	278	
14	0	0	0	0	567	278	
15	0	0	0	0	570	277	
0	0	0	0	0	569	277	
1	0	0	0	0	563	277	
2	0	0	0	0	547	277	
3	0	0	0	0	503	277	
4	0	0	0	0	483	277	
5	0	0	0	0	471	277	
6	0	0	0	0	449	277	
7	0	0	0	0	450	277	
8	0	0	0	0	449	277	
9	0	0	0	0	446	277	
10	0	0	0	0	458	277	
11	0	0	0	0	468	277	
12	0	0	0	0	494	277	
13	0	0	0	0	489	277	
14	0	0	0	0	496	276	
15	0	0	0	0	479	277	
0	0	0	0	0	496	276	
1	0	0	0	0	491	276	
2	0	0	0	0	511	276	
3	0	0	0	0	509	276	
4	0	0	0	0	512	276	
5	0	0	0	0	495	276	
6	0	0	0	0	508	276	
7	0	0	0	0	507	276	
8	0	0	0	0	488	276	
9	0	0	0	0	520	276	
10	0	0	0	0	515	276	
11	0	0	0	0	499	276	
12	0	0	0	0	517	276	
13	0	0	0	0	500	276	
14	0	0	0	0	493	276	
15	0	0	0	0	510	275	
0	0	0	0	0	518	275	
1	0	0	0	0	498	276	
2	0	0	0	0	493	275	
3	0	0	0	0	525	275	
4	0	0	0	0	510	275	
5	0	0	0	0	503	275	
6	0	0	0	0	518	275	
7	0	0	0	0	512	275	
8	0	0	0	0	517	275	
9	0	0	0	0	503	275	
10	0	0	0	0	526	275	
11	0	0	0	0	514	275	
12	0	0	0	0	517	275	
13	0	0	0	0	506	275	
14	0	0	0	0	518	275	
15	0	0	0	0	531	275	
0	0	0	0	0	542	275	
1	0	0	0	0	533	275	
2	0	0	0	0	540	275	
3	0	0	0	0	547	275	
4	0	0	0	0	512	275	
5	0	0	0	0	505	275	
6	0	0	0	0	494	275	
7	0	0	0	0	488	275	
8	0	0	0	0	497	275	
9	0	0	0	0	520	275	
10	0	0	0	0	527	275	
11	0	0	0	0	593	275	
12	0	0	0	0	704	275	
13	0	0	0	0	643	274	
14	0	0	0	0	431	274	
15	0	0	0	0	425	275	
0	0	0	0	0	463	274	
1	0	0	0	0	461	274	
2	0	0	0	0	455	274	
3	0	0	0	0	468	275	
4	0	0	0	0	489	274	
5	0	0	0	0	472	274	
6	0	0	0	0	510	274	
7	0	0	0	0	511	274	
8	0	0	0	0	498	274	
9	0	0	0	0	515	274	
10	0	0	0	0	497	274	
11	0	0	0	0	513	274	
12	0	0	0	0	526	274	
13	0	0	0	0	505	274	
14	0	0	0	0	521	274	
15	0	0	0	0	523	274	
0	0	0	0	0	553	274	
1	0	0	0	0	560	274	
2	0	0	0	0	554	274	
3	0	0	0	0	575	274	
4	0	0	0	0	588	274	
5	0	0	0	0	551	274	
6	0	0	0	0	538	274	
7	0	0	0	0	518	273	
8	0	0	0	0	483	274	
9	0	0	0	0	472	274	
10	0	0	0	0	444	274	
11	0	0	0	0	463	274	
12	0	0	0	0	438	274	
13	0	0	0	0	467	273	
14	0	0	0	0	450	273	
15	0	0	0	0	474	274	
0	0	0	0	0	488	274	
1	0	0	0	0	494	273	
2	0	0	0	0	494	273	
3	0	0	0	0	496	273	
4	0	0	0	0	493	273	
5	0	0	0	0	509	273	
6	0	0	0	0	497	273	
7	0	0	0	0	506	273	
8	0	0	0	0	519	273	
9	0	0	0	0	502	273	
10	0	0	0	0	502	273	
11	0	0	0	0	511	273	
12	0	0	0	0	512	273	
13	0	0	0	0	509	273	
14	0	0	0	0	526	273	
15	0	0	0	0	487	273	
0	0	0	0	0	522	273	
1	0	0	0	0	512	273	
2	0	0	0	0	505	273	
3	0	0	0	0	499	273	
4	0	0	0	0	494	273	
5	0	0	0	0	508	273	
6	0	0	0	0	512	273	
7	0	0	0	0	504	273	
8	0	0	0	0	512	273	
9	0	0	0	0	500	273	
10	0	0	0	0	520	273	
11	0	0	0	0	498	273	
12	0	0	0	0	525	273	
13	0	0	0	0	511	273	
14	0	0	0	0	508	273	
15	0	0	0	0	508	273	
0	0	0	0	0	520	273	
1	0	0	0	0	531	273	
2	0	0	0	0	508	273	
3	0	0	0	0	532	273	
4	0	0	0	0	535	273	
5	0	0	0	0	512	273	
6	0	0	0	0	541	272	
7	0	0	0	0	533	272	
8	0	0	0	0	537	273	
9	0	0	0	0	522	273	
10	0	0	0	0	499	273	
11	0	0	0	0	501	273	
12	0	0	0	0	489	273	
13	0	0	0	0	497	273	
14	0	0	0	0	505	273	
15	0	0	0	0	523	273	
0	0	0	0	0	550	273	
1	0	0	0	0	630	272	
2	0	0	0	0	724	272	
3	0	0	0	0	530	272	
4	0	0	0	0	376	273	
5	0	0	0	0	436	273	
6	0	0	0	0	467	273	
7	0	0	0	0	461	273	
8	0	0	0	0	483	273	
9	0	0	0	0	483	273	
10	0	0	0	0	490	273	
11	0	0	0	0	489	273	
12	0	0	0	0	489	273	
13	0	0	0	0	505	273	
14	0	0	0	0	504	273	
15	0	0	0	0	501	273	
0	0	0	0	0	511	273	
1	0	0	0	0	514	273	
2	0	0	0	0	508	273	
3	0	0	0	0	521	273	
4	0	0	0	0	509	273	
5	0	0	0	0	536	273	
6	0	0	0	0	542	273	
7	0	0	0	0	567	273	
8	0	0	0	0	563	273	
9	0	0	0	0	553	273	
10	0	0	0	0	556	273	
11	0	0	0	0	565	273	
12	0	0	0	0	545	274	
13	0	0	0	0	487	274	
14	0	0	0	0	472	274	
15	0	0	0	0	446	274	
0	0	0	0	0	455	274	
1	0	0	0	0	448	274	
2	0	0	0	0	459	274	
3	0	0	0	0	458	274	
4	0	0	0	0	478	274	
5	0	0	0	0	435	274	
6	0	0	0	0	489	274	
7	0	0	0	0	478	275	
8	0	0	0	0	493	275	
9	0	0	0	0	512	274	
10	0	0	0	0	508	275	
11	0	0	0	0	498	275	
12	0	0	0	0	498	275	
13	0	0	0	0	496	275	
14	0	0	0	0	505	275	
15	0	0	0	0	512	275	
0	0	0	0	0	494	275	
1	0	0	0	0	511	275	
2	0	0	0	0	504	275	
3	0	0	0	0	504	275	
4	0	0	0	0	508	275	
5	0	0	0	0	517	275	
6	0	0	0	0	518	275	
7	0	0	0	0	512	275	
8	0	0	0	0	501	275	
9	0	0	0	0	499	276	
10	0	0	0	0	535	276	
11	0	0	0	0	522	276	
12	0	0	0	0	516	276	
13	0	0	0	0	523	276	
14	0	0	0	0	522	276	
15	0	0	0	0	514	276	
0	0	0	0	0	540	276	
1	0	0	0	0	529	276	
2	0	0	0	0	512	276	
3	0	0	0	0	522	277	
4	0	0	0	0	515	277	
5	0	0	0	0	519	277	
6	0	0	0	0	508	277	
7	0	0	0	0	508	277	
8	0	0	0	0	514	277	
9	0	0	0	0	511	278	
10	0	0	0	0	519	278	
11	0	0	0	0	532	278	
12	0	0	0	0	545	278	
13	0	0	0	0	555	277	
14	0	0	0	0	538	278	
15	0	0	0	0	511	278	
0	0	0	0	0	547	278	
1	0	0	0	0	523	279	
2	0	0	0	0	509	278	
3	0	0	0	0	483	278	
4	0	0	0	0	494	278	
5	0	0	0	0	499	279	
6	0	0	0	0	512	279	
7	0	0	0	0	551	279	
8	0	0	0	0	641	279	
9	0	0	0	0	735	279	
10	0	0	0	0	571	279	
11	0	0	0	0	396	279	
12	0	0	0	0	435	279	
13	0	0	0	0	464	279	
14	0	0	0	0	490	279	
15	0	0	0	0	478	280	
0	0	0	0	0	457	279	
1	0	0	0	0	491	280	
2	0	0	0	0	493	280	
3	0	0	0	0	498	280	
4	0	0	0	0	488	280	
5	0	0	0	0	503	280	
6	0	0	0	0	508	280	
7	0	0	0	0	500	280	
8	0	0	0	0	523	280	
9	0	0	0	0	534	280	
10	0	0	0	0	513	280	
11	0	0	0	0	527	280	
12	0	0	0	0	546	280	
13	0	0	0	0	543	280	
14	0	0	0	0	560	280	
15	0	0	0	0	567	280	
0	0	0	0	0	574	280	
1	0	0	0	0	573	280	
2	0	0	0	0	575	281	
3	0	0	0	0	542	281	
4	0	0	0	0	505	281	
5	0	0	0	0	485	281	
6	0	0	0	0	459	281	
7	0	0	0	0	447	281	
8	0	0	0	0	452	281	
9	0	0	0	0	460	281	
10	0	0	0	0	447	281	
11	0	0	0	0	472	281	
12	0	0	0	0	467	281	
13	0	0	0	0	489	281	
14	0	0	0	0	487	281	
15	0	0	0	0	511	281	
0	0	0	0	0	500	281	
1	0	0	0	0	502	282	
2	0	0	0	0	499	281	
3	0	0	0	0	499	282	
4	0	0	0	0	489	282	
5	0	0	0	0	496	282	
6	0	0	0	0	530	282	
7	0	0	0	0	508	282	
8	0	0	0	0	513	282	
9	0	0	0	0	519	282	
10	0	0	0	0	507	282	
11	0	0	0	0	521	282	
12	0	0	0	0	498	282	
13	0	0	0	0	517	282	
14	0	0	0	0	500	282	
15	0	0	0	0	515	282	
0	0	0	0	0	515	282	
1	0	0	0	0	518	282	
2	0	0	0	0	505	282	
3	0	0	0	0	515	283	
4	0	0	0	0	524	282	
5	0	0	0	0	517	283	
6	0	0	0	0	514	283	
7	0	0	0	0	510	283	
8	0	0	0	0	508	283	
9	0	0	0	0	511	282	
10	0	0	0	0	499	283	
11	0	0	0	0	514	283	
12	0	0	0	0	513	283	
13	0	0	0	0	521	283	
14	0	0	0	0	506	283	
15	0	0	0	0	524	283	
0	0	0	0	0	488	283	
1	0	0	0	0	549	283	
2	0	0	0	0	528	283	
3	0	0	0	0	524	283	
4	0	0	0	0	532	283	
5	0	0	0	0	538	283	
6	0	0	0	0	538	283	
7	0	0	0	0	524	283	
8	0	0	0	0	509	283	
9	0	0	0	0	495	283	
10	0	0	0	0	515	283	
11	0	0	0	0	501	283	
12	0	0	0	0	491	283	
13	0	0	0	0	526	283	
14	0	0	0	0	588	283	
15	0	0	0	0	692	283	
0	0	0	0	0	666	283	
1	0	0	0	0	432	283	
2	0	0	0	0	396	283	
3	0	0	0	0	467	283	
4	0	0	0	0	464	283	
5	0	0	0	0	483	283	
6	0	0	0	0	493	283	
7	0	0	0	0	472	283	
8	0	0	0	0	473	283	
9	0	0	0	0	503	283	
10	0	0	0	0	494	283	
11	0	0	0	0	507	283	
12	0	0	0	0	513	283	
13	0	0	0	0	501	283	
14	0	0	0	0	514	283	
15	0	0	0	0	529	283	
0	0	0	0	0	512	283	
1	0	0	0	0	530	283	
2	0	0	0	0	544	283	
3	0	0	0	0	541	283	
4	0	0	0	0	573	283	
5	0	0	0	0	564	284	
6	0	0	0	0	569	284	
7	0	0	0	0	563	284	
8	0	0	0	0	572	283	
9	0	0	0	0	556	283	
10	0	0	0	0	512	283	
11	0	0	0	0	489	283	
12	0	0	0	0	455	283	
13	0	0	0	0	451	283	
14	0	0	0	0	447	283	
15	0	0	0	0	451	283	
0	0	0	0	0	451	283	
1	0	0	0	0	456	283	
2	0	0	0	0	480	283	
3	0	0	0	0	482	283	
4	0	0	0	0	467	283	
5	0	0	0	0	476	283	
6	0	0	0	0	486	283	
7	0	0	0	0	476	283	
8	0	0	0	0	499	283	
9	0	0	0	0	512	283	
10	0	0	0	0	502	283	
11	0	0	0	0	495	283	
12	0	0	0	0	500	283	
13	0	0	0	0	497	283	
14	0	0	0	0	519	283	
15	0	0	0	0	499	283	
0	0	0	0	0	511	283	
1	0	0	0	0	510	283	
2	0	0	0	0	509	283	
3	0	0	0	0	509	283	
4	0	0	0	0	517	283	
5	0	0	0	0	521	283	
6	0	0	0	0	506	283	
7	0	0	0	0	501	283	
8	0	0	0	0	520	283	
9	0	0	0	0	510	283	
10	0	0	0	0	510	283	
11	0	0	0	0	516	283	
12	0	0	0	0	530	282	
13	0	0	0	0	515	283	
14	0	0	0	0	502	283	
15	0	0	0	0	515	282	
0	0	0	0	0	493	282	
1	0	0	0	0	519	282	
2	0	0	0	0	512	282	
3	0	0	0	0	511	282	
4	0	0	0	0	504	282	
5	0	0	0	0	512	282	
6	0	0	0	0	522	283	
7	0	0	0	0	531	282	
8	0	0	0	0	551	282	
9	0	0	0	0	543	282	
10	0	0	0	0	546	282	
11	0	0	0	0	517	282	
12	0	0	0	0	502	282	
13	0	0	0	0	493	282	
14	0	0	0	0	503	282	
15	0	0	0	0	500	282	
0	0	0	0	0	512	281	
1	0	0	0	0	534	281	
2	0	0	0	0	628	281	
3	0	0	0	0	706	281	
4	0	0	0	0	558	281	
5	0	0	0	0	400	281	
6	0	0	0	0	473	281	
7	0	0	0	0	475	281	
8	0	0	0	0	476	281	
9	0	0	0	0	467	281	
10	0	0	0	0	491	281	
11	0	0	0	0	480	281	
12	0	0	0	0	489	281	
13	0	0	0	0	504	281	
14	0	0	0	0	494	281	
15	0	0	0	0	503	281	
0	0	0	0	0	507	281	
1	0	0	0	0	525	281	
2	0	0	0	0	498	281	
3	0	0	0	0	506	281	
4	0	0	0	0	542	281	
5	0	0	0	0	522	281	
6	0	0	0	0	548	281	
7	0	0	0	0	546	281	
8	0	0	0	0	574	281	
9	0	0	0	0	572	281	
10	0	0	0	0	552	281	
11	0	0	0	0	588	281	
12	0	0	0	0	562	281	
13	0	0	0	0	547	280	
14	0	0	0	0	475	281	
15	0	0	0	0	478	280	
0	0	0	0	0	464	280	
1	0	0	0	0	462	280	
2	0	0	0	0	443	280	
3	0	0	0	0	474	280	
4	0	0	0	0	443	280	
5	0	0	0	0	460	280	
6	0	0	0	0	473	280	
7	0	0	0	0	470	280	
8	0	0	0	0	472	280	
9	0	0	0	0	493	280	
10	0	0	0	0	483	280	
11	0	0	0	0	500	280	
12	0	0	0	0	502	280	
13	0	0	0	0	506	280	
14	0	0	0	0	496	280	
15	0	0	0	0	512	280	
0	0	0	0	0	510	280	
1	0	0	0	0	519	280	
2	0	0	0	0	516	280	
3	0	0	0	0	508	280	
4	0	0	0	0	504	280	
5	0	0	0	0	509	280	
6	0	0	0	0	520	280	
7	0	0	0	0	486	280	
8	0	0	0	0	499	280	
9	0	0	0	0	514	279	
10	0	0	0	0	516	279	
11	0	0	0	0	497	279	
12	0	0	0	0	503	279	
13	0	0	0	0	532	279	
14	0	0	0	0	517	279	
15	0	0	0	0	504	279	
0	0	0	0	0	520	279	
1	0	0	0	0	512	279	
2	0	0	0	0	510	279	
3	0	0	0	0	527	279	
4	0	0	0	0	502	279	
5	0	0	0	0	508	279	
6	0	0	0	0	532	279	
7	0	0	0	0	521	279	
8	0	0	0	0	514	279	
9	0	0	0	0	539	279	
10	0	0	0	0	549	279	
11	0	0	0	0	547	279	
12	0	0	0	0	518	278	
13	0	0	0	0	499	279	
14	0	0	0	0	498	279	
15	0	0	0	0	509	279	
0	0	0	0	0	486	278	
1	0	0	0	0	515	278	
2	0	0	0	0	519	279	
3	0	0	0	0	555	279	
4	0	0	0	0	633	278	
5	0	0	0	0	729	278	
6	0	0	0	0	539	278	
7	0	0	0	0	407	278	
8	0	0	0	0	455	278	
9	0	0	0	0	470	278	
10	0	0	0	0	480	278	
11	0	0	0	0	469	278	
12	0	0	0	0	493	278	
13	0	0	0	0	470	278	
14	0	0	0	0	494	278	
15	0	0	0	0	490	278	
0	0	0	0	0	481	278	
1	0	0	0	0	486	278	
2	0	0	0	0	508	278	
3	0	0	0	0	524	278	
4	0	0	0	0	538	278	
5	0	0	0	0	505	278	
6	0	0	0	0	496	277	
7	0	0	0	0	554	278	
8	0	0	0	0	528	277	
9	0	0	0	0	548	277	
10	0	0	0	0	544	277	
11	0	0	0	0	571	277	
12	0	0	0	0	572	277	
13	0	0	0	0	595	277	
14	0	0	0	0	545	277	
15	0	0	0	0	546	277	
0	0	0	0	0	502	277	
1	0	0	0	0	451	277	
2	0	0	0	0	454	277	
3	0	0	0	0	444	277	
4	0	0	0	0	471	277	
5	0	0	0	0	451	277	
6	0	0	0	0	462	276	
7	0	0	0	0	481	276	
8	0	0	0	0	477	276	
9	0	0	0	0	475	277	
10	0	0	0	0	474	276	
11	0	0	0	0	499	276	
12	0	0	0	0	487	276	
13	0	0	0	0	489	276	
14	0	0	0	0	511	276	
15	0	0	0	0	505	276	
0	0	0	0	0	512	276	
1	0	0	0	0	503	276	
2	0	0	0	0	488	276	
3	0	0	0	0	491	276	
4	0	0	0	0	510	276	
5	0	0	0	0	523	276	
6	0	0	0	0	508	276	
7	0	0	0	0	512	276	
8	0	0	0	0	492	276	
9	0	0	0	0	524	275	
10	0	0	0	0	510	275	
11	0	0	0	0	504	276	
12	0	0	0	0	517	276	
13	0	0	0	0	532	275	
14	0	0	0	0	496	275	
15	0	0	0	0	511	275	
0	0	0	0	0	502	275	
1	0	0	0	0	534	275	
2	0	0	0	0	519	275	
3	0	0	0	0	516	275	
4	0	0	0	0	526	275	
5	0	0	0	0	516	275	
6	0	0	0	0	507	275	
7	0	0	0	0	529	275	
8	0	0	0	0	533	275	
9	0	0	0	0	536	275	
10	0	0	0	0	560	275	
11	0	0	0	0	529	275	
12	0	0	0	0	530	275	
13	0	0	0	0	516	275	
14	0	0	0	0	496	275	
15	0	0	0	0	503	275	
0	0	0	0	0	485	275	
1	0	0	0	0	499	275	
2	0	0	0	0	519	275	
3	0	0	0	0	548	275	
4	0	0	0	0	684	275	
5	0	0	0	0	700	274	
6	0	0	0	0	459	275	
7	0	0	0	0	417	275	
8	0	0	0	0	457	275	
9	0	0	0	0	465	275	
10	0	0	0	0	467	275	
11	0	0	0	0	456	275	
12	0	0	0	0	486	275	
13	0	0	0	0	473	275	
14	0	0	0	0	498	275	
15	0	0	0	0	499	275	
0	0	0	0	0	491	275	
1	0	0	0	0	532	275	
2	0	0	0	0	516	275	
3	0	0	0	0	496	275	
4	0	0	0	0	512	275	
5	0	0	0	0	527	275	
6	0	0	0	0	531	275	
7	0	0	0	0	537	275	
8	0	0	0	0	534	275	
9	0	0	0	0	564	275	
10	0	0	0	0	554	275	
11	0	0	0	0	576	275	
12	0	0	0	0	557	275	
13	0	0	0	0	562	275	
14	0	0	0	0	530	275	
15	0	0	0	0	530	275	
0	0	0	0	0	486	275	
1	0	0	0	0	458	275	
2	0	0	0	0	465	275	
3	0	0	0	0	429	275	
4	0	0	0	0	444	275	
5	0	0	0	0	455	275	
6	0	0	0	0	451	275	
7	0	0	0	0	475	275	
8	0	0	0	0	480	275	
9	0	0	0	0	483	275	
10	0	0	0	0	475	275	
11	0	0	0	0	481	275	
12	0	0	0	0	529	275	
13	0	0	0	0	499	275	
14	0	0	0	0	463	275	
15	0	0	0	0	501	275	
0	0	0	0	0	485	275	
1	0	0	0	0	504	275	
2	0	0	0	0	512	275	
3	0	0	0	0	485	275	
4	0	0	0	0	510	275	
5	0	0	0	0	498	275	
6	0	0	0	0	494	275	
7	0	0	0	0	505	275	
8	0	0	0	0	513	275	
9	0	0	0	0	505	275	
10	0	0	0	0	515	275	
11	0	0	0	0	497	275	
12	0	0	0	0	506	275	
13	0	0	0	0	535	275	
14	0	0	0	0	536	275	
15	0	0	0	0	503	275	
0	0	0	0	0	518	276	
1	0	0	0	0	521	276	
2	0	0	0	0	498	276	
3	0	0	0	0	518	275	
4	0	0	0	0	538	275	
5	0	0	0	0	536	275	
6	0	0	0	0	536	276	
7	0	0	0	0	518	276	
8	0	0	0	0	535	276	
9	0	0	0	0	505	276	
10	0	0	0	0	505	275	
11	0	0	0	0	516	276	
12	0	0	0	0	510	275	
13	0	0	0	0	473	276	
14	0	0	0	0	508	276	
15	0	0	0	0	519	276	
0	0	0	0	0	560	276	
1	0	0	0	0	668	276	
2	0	0	0	0	727	275	
3	0	0	0	0	513	276	
4	0	0	0	0	387	276	
5	0	0	0	0	459	276	
6	0	0	0	0	439	275	
7	0	0	0	0	488	276	
8	0	0	0	0	481	276	
9	0	0	0	0	452	276	
10	0	0	0	0	498	276	
11	0	0	0	0	484	276	
12	0	0	0	0	490	276	
13	0	0	0	0	513	275	
14	0	0	0	0	520	276	
15	0	0	0	0	514	276	
0	0	0	0	0	512	276	
1	0	0	0	0	511	275	
2	0	0	0	0	513	275	
3	0	0	0	0	536	276	
4	0	0	0	0	559	276	
5	0	0	0	0	510	276	
6	0	0	0	0	565	276	
7	0	0	0	0	569	276	
8	0	0	0	0	558	276	
9	0	0	0	0	571	276	
10	0	0	0	0	568	276	
11	0	0	0	0	560	275	
12	0	0	0	0	532	275	
13	0	0	0	0	483	275	
14	0	0	0	0	449	276	
15	0	0	0	0	464	275	
0	0	0	0	0	440	275	
1	0	0	0	0	453	275	
2	0	0	0	0	467	275	
3	0	0	0	0	458	275	
4	0	0	0	0	479	276	
5	0	0	0	0	467	275	
6	0	0	0	0	496	275	
7	0	0	0	0	508	275	
8	0	0	0	0	494	275	
9	0	0	0	0	496	275	
10	0	0	0	0	500	275	
11	0	0	0	0	502	276	
12	0	0	0	0	502	275	
13	0	0	0	0	508	275	
14	0	0	0	0	504	276	
15	0	0	0	0	522	275	
0	0	0	0	0	518	275	
1	0	0	0	0	527	275	
2	0	0	0	0	507	275	
3	0	0	0	0	515	275	
4	0	0	0	0	511	275	
5	0	0	0	0	498	275	
6	0	0	0	0	511	275	
7	0	0	0	0	505	275	
8	0	0	0	0	529	275	
9	0	0	0	0	515	275	
10	0	0	0	0	521	275	
11	0	0	0	0	513	276	
12	0	0	0	0	514	275	
13	0	0	0	0	519	275	
14	0	0	0	0	506	275	
15	0	0	0	0	524	275	
0	0	0	0	0	534	275	
1	0	0	0	0	532	275	
2	0	0	0	0	544	275	
3	0	0	0	0	544	275	
4	0	0	0	0	515	275	
5	0	0	0	0	498	275	
6	0	0	0	0	503	275	
7	0	0	0	0	487	275	
8	0	0	0	0	498	275	
9	0	0	0	0	507	275	
10	0	0	0	0	528	275	
11	0	0	0	0	605	275	
12	0	0	0	0	728	275	
13	0	0	0	0	607	275	
14	0	0	0	0	386	275	
15	0	0	0	0	426	275	
0	0	0	0	0	462	275	
1	0	0	0	0	471	275	
2	0	0	0	0	478	275	
3	0	0	0	0	459	275	
4	0	0	0	0	514	275	
5	0	0	0	0	483	275	
6	0	0	0	0	478	275	
7	0	0	0	0	508	275	
8	0	0	0	0	519	275	
9	0	0	0	0	506	275	
10	0	0	0	0	500	275	
11	0	0	0	0	534	275	
12	0	0	0	0	545	275	
13	0	0	0	0	515	275	
14	0	0	0	0	542	275	
15	0	0	0	0	528	275	
0	0	0	0	0	553	275	
1	0	0	0	0	579	275	
2	0	0	0	0	583	275	
3	0	0	0	0	560	275	
4	0	0	0	0	587	275	
5	0	0	0	0	542	275	
6	0	0	0	0	536	275	
7	0	0	0	0	512	275	
8	0	0	0	0	483	275	
9	0	0	0	0	456	275	
10	0	0	0	0	454	275	
11	0	0	0	0	452	275	
12	0	0	0	0	421	275	
13	0	0	0	0	483	275	
14	0	0	0	0	470	275	
15	0	0	0	0	471	275	
0	0	0	0	0	482	275	
1	0	0	0	0	490	275	
2	0	0	0	0	494	275	
3	0	0	0	0	492	275	
4	0	0	0	0	471	275	
5	0	0	0	0	483	275	
6	0	0	0	0	507	275	
7	0	0	0	0	501	275	
8	0	0	0	0	487	275	
9	0	0	0	0	525	275	
10	0	0	0	0	510	275	
11	0	0	0	0	529	275	
12	0	0	0	0	500	275	
13	0	0	0	0	506	275	
14	0	0	0	0	523	275	
15	0	0	0	0	531	275	
0	0	0	0	0	508	275	
1	0	0	0	0	502	275	
2	0	0	0	0	526	275	
3	0	0	0	0	507	275	
4	0	0	0	0	518	275	
5	0	0	0	0	515	275	
6	0	0	0	0	520	275	
7	0	0	0	0	504	275	
8	0	0	0	0	496	275	
9	0	0	0	0	524	275	
10	0	0	0	0	501	275	
11	0	0	0	0	505	275	
12	0	0	0	0	533	275	
13	0	0	0	0	516	275	
14	0	0	0	0	531	275	
15	0	0	0	0	531	275	
0	0	0	0	0	524	275	
1	0	0	0	0	531	275	
2	0	0	0	0	520	275	
3	0	0	0	0	553	275	
4	0	0	0	0	508	275	
5	0	0	0	0	521	275	
6	0	0	0	0	504	275	
7	0	0	0	0	492	275	
8	0	0	0	0	504	275	
9	0	0	0	0	508	275	
10	0	0	0	0	500	275	
11	0	0	0	0	522	276	
12	0	0	0	0	592	276	
13	0	0	0	0	697	275	
14	0	0	0	0	664	276	
15	0	0	0	0	422	276	
0	0	0	0	0	441	276	
1	0	0	0	0	477	276	
2	0	0	0	0	460	276	
3	0	0	0	0	459	276	
4	0	0	0	0	468	277	
5	0	0	0	0	488	276	
6	0	0	0	0	498	277	
7	0	0	0	0	493	277	
8	0	0	0	0	496	277	
9	0	0	0	0	505	277	
10	0	0	0	0	487	277	
11	0	0	0	0	538	277	
12	0	0	0	0	516	277	
13	0	0	0	0	515	277	
14	0	0	0	0	518	277	
15	0	0	0	0	527	278	
0	0	0	0	0	536	278	
1	0	0	0	0	541	278	
2	0	0	0	0	561	278	
3	0	0	0	0	573	278	
4	0	0	0	0	559	278	
5	0	0	0	0	572	278	
6	0	0	0	0	572	278	
7	0	0	0	0	539	278	
8	0	0	0	0	510	278	
9	0	0	0	0	476	279	
10	0	0	0	0	448	279	
11	0	0	0	0	431	279	
12	0	0	0	0	456	279	
13	0	0	0	0	460	279	
14	0	0	0	0	464	279	
15	0	0	0	0	445	279	
0	0	0	0	0	480	279	
1	0	0	0	0	487	280	
2	0	0	0	0	466	280	
3	0	0	0	0	487	280	
4	0	0	0	0	482	280	
5	0	0	0	0	489	280	
6	0	0	0	0	506	280	
7	0	0	0	0	495	280	
8	0	0	0	0	507	280	
9	0	0	0	0	515	280	
10	0	0	0	0	516	280	
11	0	0	0	0	519	280	
12	0	0	0	0	515	280	
13	0	0	0	0	516	280	
14	0	0	0	0	489	280	
15	0	0	0	0	499	281	
0	0	0	0	0	500	281	
1	0	0	0	0	516	281	
2	0	0	0	0	526	281	
3	0	0	0	0	525	281	
4	0	0	0	0	504	281	
5	0	0	0	0	529	281	
6	0	0	0	0	503	281	
7	0	0	0	0	526	281	
8	0	0	0	0	530	282	
9	0	0	0	0	498	282	
10	0	0	0	0	499	282	
11	0	0	0	0	515	282	
12	0	0	0	0	524	282	
13	0	0	0	0	514	282	
14	0	0	0	0	514	282	
15	0	0	0	0	512	282	
0	0	0	0	0	511	283	
1	0	0	0	0	526	283	
2	0	0	0	0	532	283	
3	0	0	0	0	510	283	
4	0	0	0	0	516	283	
5	0	0	0	0	512	283	
6	0	0	0	0	525	283	
7	0	0	0	0	546	283	
8	0	0	0	0	532	283	
9	0	0	0	0	526	283	
10	0	0	0	0	543	284	
11	0	0	0	0	530	284	
12	0	0	0	0	502	284	
13	0	0	0	0	497	284	
14	0	0	0	0	496	284	
15	0	0	0	0	505	284	
0	0	0	0	0	509	284	
1	0	0	0	0	518	284	
2	0	0	0	0	572	284	
3	0	0	0	0	712	284	
4	0	0	0	0	668	284	
5	0	0	0	0	451	284	
6	0	0	0	0	422	284	
7	0	0	0	0	453	285	
8	0	0	0	0	453	285	
9	0	0	0	0	470	285	
10	0	0	0	0	465	285	
11	0	0	0	0	492	285	
12	0	0	0	0	472	285	
13	0	0	0	0	491	285	
14	0	0	0	0	500	285	
15	0	0	0	0	482	285	
0	0	0	0	0	508	285	
1	0	0	0	0	507	285	
2	0	0	0	0	511	285	
3	0	0	0	0	529	286	
4	0	0	0	0	536	286	
5	0	0	0	0	528	285	
6	0	0	0	0	527	286	
7	0	0	0	0	544	286	
8	0	0	0	0	559	286	
9	0	0	0	0	558	286	
10	0	0	0	0	558	286	
11	0	0	0	0	555	286	
12	0	0	0	0	561	286	
13	0	0	0	0	544	286	
14	0	0	0	0	510	286	
15	0	0	0	0	487	286	
0	0	0	0	0	457	286	
1	0	0	0	0	453	286	
2	0	0	0	0	470	286	
3	0	0	0	0	467	286	
4	0	0	0	0	460	286	
5	0	0	0	0	474	287	
6	0	0	0	0	475	287	
7	0	0	0	0	497	287	
8	0	0	0	0	472	287	
9	0	0	0	0	481	287	
10	0	0	0	0	493	287	
11	0	0	0	0	495	287	
12	0	0	0	0	521	287	
13	0	0	0	0	503	287	
14	0	0	0	0	492	287	
15	0	0	0	0	500	287	
0	0	0	0	0	523	287	
1	0	0	0	0	527	287	
2	0	0	0	0	518	287	
3	0	0	0	0	517	287	
4	0	0	0	0	491	287	
5	0	0	0	0	520	287	
6	0	0	0	0	512	287	
7	0	0	0	0	524	287	
8	0	0	0	0	502	287	
9	0	0	0	0	514	287	
10	0	0	0	0	495	287	
11	0	0	0	0	517	287	
12	0	0	0	0	518	287	
13	0	0	0	0	516	287	
14	0	0	0	0	511	287	
15	0	0	0	0	527	287	
0	0	0	0	0	507	287	
1	0	0	0	0	494	287	
2	0	0	0	0	519	287	
3	0	0	0	0	519	287	
4	0	0	0	0	524	287	
5	0	0	0	0	524	287	
6	0	0	0	0	516	287	
7	0	0	0	0	511	287	
8	0	0	0	0	525	287	
9	0	0	0	0	515	287	
10	0	0	0	0	519	287	
11	0	0	0	0	515	287	
12	0	0	0	0	505	287	
13	0	0	0	0	515	287	
14	0	0	0	0	518	287	
15	0	0	0	0	515	287	
0	0	0	0	0	523	287	
1	0	0	0	0	550	287	
2	0	0	0	0	532	287	
3	0	0	0	0	561	287	
4	0	0	0	0	536	288	
5	0	0	0	0	519	287	
6	0	0	0	0	493	287	
7	0	0	0	0	490	287	
8	0	0	0	0	497	288	
9	0	0	0	0	507	287	
10	0	0	0	0	519	287	
11	0	0	0	0	533	287	
12	0	0	0	0	640	287	
13	0	0	0	0	705	287	
14	0	0	0	0	585	287	
15	0	0	0	0	415	287	
0	0	0	0	0	448	287	
1	0	0	0	0	459	287	
2	0	0	0	0	464	287	
3	0	0	0	0	475	287	
4	0	0	0	0	470	287	
5	0	0	0	0	480	287	
6	0	0	0	0	496	287	
7	0	0	0	0	495	287	
8	0	0	0	0	493	287	
9	0	0	0	0	499	287	
10	0	0	0	0	508	287	
11	0	0	0	0	513	287	
12	0	0	0	0	510	287	
13	0	0	0	0	527	287	
14	0	0	0	0	523	287	
15	0	0	0	0	543	287	
0	0	0	0	0	533	287	
1	0	0	0	0	542	287	
2	0	0	0	0	556	287	
3	0	0	0	0	571	287	
4	0	0	0	0	556	287	
5	0	0	0	0	564	287	
6	0	0	0	0	561	287	
7	0	0	0	0	540	287	
8	0	0	0	0	496	287	
9	0	0	0	0	487	287	
10	0	0	0	0	464	287	
11	0	0	0	0	440	287	
12	0	0	0	0	450	287	
13	0	0	0	0	440	287	
14	0	0	0	0	461	287	
15	0	0	0	0	457	287	
0	0	0	0	0	453	287	
1	0	0	0	0	466	286	
2	0	0	0	0	483	287	
3	0	0	0	0	501	287	
4	0	0	0	0	504	286	
5	0	0	0	0	502	286	
6	0	0	0	0	495	287	
7	0	0	0	0	514	286	
8	0	0	0	0	492	286	
9	0	0	0	0	510	286	
10	0	0	0	0	515	286	
11	0	0	0	0	524	286	
12	0	0	0	0	510	286	
13	0	0	0	0	523	286	
14	0	0	0	0	526	286	
15	0	0	0	0	520	286	
0	0	0	0	0	492	286	
1	0	0	0	0	513	286	
2	0	0	0	0	525	286	
3	0	0	0	0	507	286	
4	0	0	0	0	513	286	
5	0	0	0	0	497	286	
6	0	0	0	0	506	285	
7	0	0	0	0	512	286	
8	0	0	0	0	515	286	
9	0	0	0	0	510	285	
10	0	0	0	0	520	286	
11	0	0	0	0	507	285	
12	0	0	0	0	503	285	
13	0	0	0	0	518	285	
14	0	0	0	0	498	285	
15	0	0	0	0	503	285	
0	0	0	0	0	518	285	
1	0	0	0	0	526	285	
2	0	0	0	0	534	285	
3	0	0	0	0	556	284	
4	0	0	0	0	542	285	
5	0	0	0	0	532	285	
6	0	0	0	0	518	285	
7	0	0	0	0	491	285	
8	0	0	0	0	489	285	
9	0	0	0	0	505	285	
10	0	0	0	0	487	284	
11	0	0	0	0	505	284	
12	0	0	0	0	543	284	
13	0	0	0	0	611	284	
14	0	0	0	0	716	284	
15	0	0	0	0	557	284	
0	0	0	0	0	368	284	
1	0	0	0	0	435	284	
2	0	0	0	0	494	284	
3	0	0	0	0	480	284	
4	0	0	0	0	494	284	
5	0	0	0	0	467	284	
6	0	0	0	0	493	284	
7	0	0	0	0	519	283	
8	0	0	0	0	513	284	
9	0	0	0	0	489	284	
10	0	0	0	0	516	283	
11	0	0	0	0	523	283	
12	0	0	0	0	508	283	
13	0	0	0	0	532	283	
14	0	0	0	0	518	283	
15	0	0	0	0	515	283	
0	0	0	0	0	519	283	
1	0	0	0	0	538	283	
2	0	0	0	0	551	283	
3	0	0	0	0	562	282	
4	0	0	0	0	573	283	
5	0	0	0	0	586	282	
6	0	0	0	0	570	282	
7	0	0	0	0	563	282	
8	0	0	0	0	543	282	
9	0	0	0	0	502	282	
10	0	0	0	0	464	282	
11	0	0	0	0	467	282	
12	0	0	0	0	453	282	
13	0	0	0	0	452	282	
14	0	0	0	0	471	282	
15	0	0	0	0	452	282	
0	0	0	0	0	458	282	
1	0	0	0	0	459	282	
2	0	0	0	0	471	282	
3	0	0	0	0	473	282	
4	0	0	0	0	483	282	
5	0	0	0	0	485	281	
6	0	0	0	0	512	281	
7	0	0	0	0	487	281	
8	0	0	0	0	491	281	
9	0	0	0	0	508	281	
10	0	0	0	0	518	281	
11	0	0	0	0	518	281	
12	0	0	0	0	520	281	
13	0	0	0	0	512	281	
14	0	0	0	0	514	281	
15	0	0	0	0	498	281	
0	0	0	0	0	508	281	
1	0	0	0	0	513	281	
2	0	0	0	0	511	281	
3	0	0	0	0	497	281	
4	0	0	0	0	518	281	
5	0	0	0	0	496	281	
6	0	0	0	0	525	281	
7	0	0	0	0	518	281	
8	0	0	0	0	525	281	
9	0	0	0	0	527	281	
10	0	0	0	0	511	281	
11	0	0	0	0	528	281	
12	0	0	0	0	526	281	
13	0	0	0	0	504	281	
14	0	0	0	0	518	281	
15	0	0	0	0	507	280	
0	0	0	0	0	522	280	
1	0	0	0	0	521	280	
2	0	0	0	0	497	280	
3	0	0	0	0	507	280	
4	0	0	0	0	547	280	
5	0	0	0	0	540	280	
6	0	0	0	0	518	280	
7	0	0	0	0	532	280	
8	0	0	0	0	537	280	
9	0	0	0	0	510	280	
10	0	0	0	0	487	280	
11	0	0	0	0	502	280	
12	0	0	0	0	504	280	
13	0	0	0	0	504	280	
14	0	0	0	0	533	280	
15	0	0	0	0	577	280	
0	0	0	0	0	633	280	
1	0	0	0	0	704	280	
2	0	0	0	0	483	280	
3	0	0	0	0	432	280	
4	0	0	0	0	467	280	
5	0	0	0	0	478	280	
6	0	0	0	0	480	279	
7	0	0	0	0	472	279	
8	0	0	0	0	479	280	
9	0	0	0	0	496	279	
10	0	0	0	0	493	279	
11	0	0	0	0	490	279	
12	0	0	0	0	490	279	
13	0	0	0	0	505	279	
14	0	0	0	0	512	279	
15	0	0	0	0	504	279	
0	0	0	0	0	531	279	
1	0	0	0	0	504	279	
2	0	0	0	0	519	279	
3	0	0	0	0	543	279	
4	0	0	0	0	536	279	
5	0	0	0	0	537	279	
6	0	0	0	0	541	279	
7	0	0	0	0	563	279	
8	0	0	0	0	575	279	
9	0	0	0	0	574	279	
10	0	0	0	0	539	278	
11	0	0	0	0	519	278	
12	0	0	0	0	490	279	
13	0	0	0	0	477	279	
14	0	0	0	0	454	278	
15	0	0	0	0	456	278	
0	0	0	0	0	457	278	
1	0	0	0	0	458	278	
2	0	0	0	0	446	278	
3	0	0	0	0	458	278	
4	0	0	0	0	473	278	
5	0	0	0	0	486	278	
6	0	0	0	0	492	278	
7	0	0	0	0	495	278	
8	0	0	0	0	496	278	
9	0	0	0	0	499	278	
10	0	0	0	0	495	278	
11	0	0	0	0	511	278	
12	0	0	0	0	503	278	
13	0	0	0	0	507	278	
14	0	0	0	0	503	278	
15	0	0	0	0	525	278	
0	0	0	0	0	499	277	
1	0	0	0	0	511	277	
2	0	0	0	0	509	277	
3	0	0	0	0	512	277	
4	0	0	0	0	491	277	
5	0	0	0	0	515	277	
6	0	0	0	0	525	277	
7	0	0	0	0	513	277	
8	0	0	0	0	513	277	
9	0	0	0	0	519	277	
10	0	0	0	0	530	277	
11	0	0	0	0	504	277	
12	0	0	0	0	507	277	
13	0	0	0	0	512	277	
14	0	0	0	0	499	277	
15	0	0	0	0	523	276	
0	0	0	0	0	520	277	
1	0	0	0	0	530	276	
2	0	0	0	0	502	277	
3	0	0	0	0	516	277	
4	0	0	0	0	502	277	
5	0	0	0	0	522	276	
6	0	0	0	0	515	277	
7	0	0	0	0	531	276	
8	0	0	0	0	517	276	
9	0	0	0	0	539	276	
10	0	0	0	0	539	276	
11	0	0	0	0	556	276	
12	0	0	0	0	528	276	
13	0	0	0	0	507	276	
14	0	0	0	0	495	276	
15	0	0	0	0	502	276	
0	0	0	0	0	515	276	
1	0	0	0	0	492	276	
2	0	0	0	0	518	276	
3	0	0	0	0	548	276	
4	0	0	0	0	622	276	
5	0	0	0	0	721	276	
6	0	0	0	0	549	275	
7	0	0	0	0	427	276	
8	0	0	0	0	449	275	
9	0	0	0	0	475	275	
10	0	0	0	0	463	275	
11	0	0	0	0	478	275	
12	0	0	0	0	476	275	
13	0	0	0	0	482	275	
14	0	0	0	0	484	275	
15	0	0	0	0	504	275	
0	0	0	0	0	502	275	
1	0	0	0	0	504	275	
2	0	0	0	0	526	275	
3	0	0	0	0	499	275	
4	0	0	0	0	512	275	
5	0	0	0	0	534	275	
6	0	0	0	0	518	275	
7	0	0	0	0	528	275	
8	0	0	0	0	528	275	
9	0	0	0	0	552	275	
10	0	0	0	0	559	275	
11	0	0	0	0	567	275	
12	0	0	0	0	557	275	
13	0	0	0	0	560	275	
14	0	0	0	0	553	275	
15	0	0	0	0	537	275	
0	0	0	0	0	521	275	
1	0	0	0	0	468	275	
2	0	0	0	0	455	275	
3	0	0	0	0	445	275	
4	0	0	0	0	443	275	
5	0	0	0	0	451	275	
6	0	0	0	0	464	275	
7	0	0	0	0	464	275	
8	0	0	0	0	467	274	
9	0	0	0	0	491	274	
10	0	0	0	0	480	274	
11	0	0	0	0	493	274	
12	0	0	0	0	497	274	
13	0	0	0	0	491	274	
14	0	0	0	0	499	274	
15	0	0	0	0	502	274	
0	0	0	0	0	502	274	
1	0	0	0	0	503	274	
2	0	0	0	0	515	274	
3	0	0	0	0	499	274	
4	0	0	0	0	500	274	
5	0	0	0	0	512	274	
6	0	0	0	0	508	274	
7	0	0	0	0	499	274	
8	0	0	0	0	513	274	
9	0	0	0	0	512	274	
10	0	0	0	0	520	274	
11	0	0	0	0	496	274	
12	0	0	0	0	519	273	
13	0	0	0	0	494	274	
14	0	0	0	0	515	273	
15	0	0	0	0	507	273	
0	0	0	0	0	504	273	
1	0	0	0	0	524	273	
2	0	0	0	0	526	274	
3	0	0	0	0	515	273	
4	0	0	0	0	512	273	
5	0	0	0	0	530	273	
6	0	0	0	0	492	273	
7	0	0	0	0	532	273	
8	0	0	0	0	498	273	
9	0	0	0	0	509	273	
10	0	0	0	0	530	273	
11	0	0	0	0	511	273	
12	0	0	0	0	518	273	
13	0	0	0	0	517	273	
14	0	0	0	0	526	273	
15	0	0	0	0	547	273	
0	0	0	0	0	536	273	
1	0	0	0	0	531	273	
2	0	0	0	0	525	273	
3	0	0	0	0	532	272	
4	0	0	0	0	541	273	
5	0	0	0	0	493	273	
6	0	0	0	0	483	273	
7	0	0	0	0	495	273	
8	0	0	0	0	504	273	
9	0	0	0	0	498	272	
10	0	0	0	0	545	272	
11	0	0	0	0	595	273	
12	0	0	0	0	698	273	
13	0	0	0	0	666	272	
14	0	0	0	0	410	272	
15	0	0	0	0	439	272	
0	0	0	0	0	451	272	
1	0	0	0	0	463	272	
2	0	0	0	0	470	272	
3	0	0	0	0	486	272	
4	0	0	0	0	487	272	
5	0	0	0	0	480	272	
6	0	0	0	0	496	272	
7	0	0	0	0	501	272	
8	0	0	0	0	512	272	
9	0	0	0	0	500	272	
10	0	0	0	0	503	272	
11	0	0	0	0	509	272	
12	0	0	0	0	519	272	
13	0	0	0	0	532	272	
14	0	0	0	0	528	272	
15	0	0	0	0	526	272	
0	0	0	0	0	550	272	
1	0	0	0	0	551	272	
2	0	0	0	0	566	271	
3	0	0	0	0	555	271	
4	0	0	0	0	560	272	
5	0	0	0	0	552	271	
6	0	0	0	0	537	271	
7	0	0	0	0	523	271	
8	0	0	0	0	505	272	
9	0	0	0	0	476	272	
10	0	0	0	0	437	272	
11	0	0	0	0	446	272	
12	0	0	0	0	441	271	
13	0	0	0	0	467	272	
14	0	0	0	0	493	271	
15	0	0	0	0	456	271	
0	0	0	0	0	472	272	
1	0	0	0	0	471	271	
2	0	0	0	0	487	271	
3	0	0	0	0	490	272	
4	0	0	0	0	503	271	
5	0	0	0	0	498	271	
6	0	0	0	0	497	272	
7	0	0	0	0	485	271	
8	0	0	0	0	507	271	
9	0	0	0	0	486	271	
10	0	0	0	0	502	271	
11	0	0	0	0	507	272	
12	0	0	0	0	508	271	
13	0	0	0	0	504	271	
14	0	0	0	0	513	272	
15	0	0	0	0	498	271	
0	0	0	0	0	513	271	
1	0	0	0	0	516	272	
2	0	0	0	0	502	271	
3	0	0	0	0	513	271	
4	0	0	0	0	502	272	
5	0	0	0	0	509	271	
6	0	0	0	0	544	271	
7	0	0	0	0	504	272	
8	0	0	0	0	513	272	
9	0	0	0	0	512	271	
10	0	0	0	0	531	271	
11	0	0	0	0	519	272	
12	0	0	0	0	531	272	
13	0	0	0	0	499	272	
14	0	0	0	0	512	272	
15	0	0	0	0	515	272	
0	0	0	0	0	515	272	
1	0	0	0	0	497	272	
2	0	0	0	0	500	272	
3	0	0	0	0	522	272	
4	0	0	0	0	508	272	
5	0	0	0	0	516	272	
6	0	0	0	0	531	272	
7	0	0	0	0	526	272	
8	0	0	0	0	528	272	
9	0	0	0	0	536	272	
10	0	0	0	0	541	272	
11	0	0	0	0	540	272	
12	0	0	0	0	527	272	
13	0	0	0	0	507	272	
14	0	0	0	0	488	272	
15	0	0	0	0	500	272	
0	0	0	0	0	500	272	
1	0	0	0	0	516	272	
2	0	0	0	0	530	272	
3	0	0	0	0	566	272	
4	0	0	0	0	647	272	
5	0	0	0	0	693	272	
6	0	0	0	0	467	272	
7	0	0	0	0	411	272	
8	0	0	0	0	456	273	
9	0	0	0	0	446	273	
10	0	0	0	0	484	273	
11	0	0	0	0	492	273	
12	0	0	0	0	476	273	
13	0	0	0	0	479	273	
14	0	0	0	0	476	273	
15	0	0	0	0	497	273	
0	0	0	0	0	502	273	
1	0	0	0	0	508	273	
2	0	0	0	0	513	273	
3	0	0	0	0	509	273	
4	0	0	0	0	523	273	
5	0	0	0	0	523	273	
6	0	0	0	0	536	273	
7	0	0	0	0	560	273	
8	0	0	0	0	535	273	
9	0	0	0	0	552	273	
10	0	0	0	0	547	273	
11	0	0	0	0	579	273	
12	0	0	0	0	558	273	
13	0	0	0	0	574	273	
14	0	0	0	0	563	273	
15	0	0	0	0	548	273	
0	0	0	0	0	495	273	
1	0	0	0	0	461	273	
2	0	0	0	0	450	273	
3	0	0	0	0	457	273	
4	0	0	0	0	455	273	
5	0	0	0	0	453	273	
6	0	0	0	0	444	273	
7	0	0	0	0	467	273	
8	0	0	0	0	479	273	
9	0	0	0	0	459	274	
10	0	0	0	0	478	274	
11	0	0	0	0	490	273	
12	0	0	0	0	488	274	
13	0	0	0	0	498	274	
14	0	0	0	0	499	273	
15	0	0	0	0	512	274	
0	0	0	0	0	507	274	
1	0	0	0	0	499	273	
2	0	0	0	0	520	274	
3	0	0	0	0	496	274	
4	0	0	0	0	511	274	
5	0	0	0	0	526	274	
6	0	0	0	0	516	274	
7	0	0	0	0	528	274	
8	0	0	0	0	509	274	
9	0	0	0	0	503	274	
10	0	0	0	0	516	274	
11	0	0	0	0	514	274	
12	0	0	0	0	520	274	
13	0	0	0	0	515	274	
14	0	0	0	0	503	274	
15	0	0	0	0	508	274	
0	0	0	0	0	511	274	
1	0	0	0	0	516	274	
2	0	0	0	0	523	274	
3	0	0	0	0	489	274	
4	0	0	0	0	502	274	
5	0	0	0	0	526	274	
6	0	0	0	0	496	274	
7	0	0	0	0	496	274	
8	0	0	0	0	510	274	
9	0	0	0	0	501	274	
10	0	0	0	0	530	274	
11	0	0	0	0	512	274	
12	0	0	0	0	514	274	
13	0	0	0	0	518	274	
14	0	0	0	0	509	274	
15	0	0	0	0	527	274	
0	0	0	0	0	521	274	
1	0	0	0	0	533	274	
2	0	0	0	0	531	274	
3	0	0	0	0	545	274	
4	0	0	0	0	529	275	
5	0	0	0	0	504	274	
6	0	0	0	0	499	274	
7	0	0	0	0	492	274	
8	0	0	0	0	495	274	
9	0	0	0	0	500	275	
10	0	0	0	0	503	274	
11	0	0	0	0	563	274	
12	0	0	0	0	655	274	
13	0	0	0	0	713	274	
14	0	0	0	0	497	275	
15	0	0	0	0	384	275	
0	0	0	0	0	471	274	
1	0	0	0	0	467	275	
2	0	0	0	0	469	274	
3	0	0	0	0	475	275	
4	0	0	0	0	494	274	
5	0	0	0	0	483	274	
6	0	0	0	0	499	274	
7	0	0	0	0	502	274	
8	0	0	0	0	496	274	
9	0	0	0	0	504	274	
10	0	0	0	0	511	274	
11	0	0	0	0	503	274	
12	0	0	0	0	515	275	
13	0	0	0	0	512	274	
14	0	0	0	0	529	275	
15	0	0	0	0	532	274	
0	0	0	0	0	543	274	
1	0	0	0	0	551	274	
2	0	0	0	0	559	274	
3	0	0	0	0	572	274	
4	0	0	0	0	567	274	
5	0	0	0	0	590	274	
6	0	0	0	0	562	274	
7	0	0	0	0	528	274	
8	0	0	0	0	497	274	
9	0	0	0	0	475	275	
10	0	0	0	0	461	274	
11	0	0	0	0	456	274	
12	0	0	0	0	441	274	
13	0	0	0	0	464	274	
14	0	0	0	0	468	274	
15	0	0	0	0	464	274	
0	0	0	0	0	467	274	
1	0	0	0	0	482	274	
2	0	0	0	0	486	274	
3	0	0	0	0	495	274	
4	0	0	0	0	492	274	
5	0	0	0	0	495	274	
6	0	0	0	0	505	274	
7	0	0	0	0	509	274	
8	0	0	0	0	488	274	
9	0	0	0	0	531	274	
10	0	0	0	0	504	274	
11	0	0	0	0	503	274	
12	0	0	0	0	507	274	
13	0	0	0	0	507	274	
14	0	0	0	0	510	274	
15	0	0	0	0	517	274	
0	0	0	0	0	524	274	
1	0	0	0	0	505	274	
2	0	0	0	0	513	274	
3	0	0	0	0	511	274	
4	0	0	0	0	522	274	
5	0	0	0	0	505	274	
6	0	0	0	0	527	274	
7	0	0	0	0	509	273	
8	0	0	0	0	518	274	
9	0	0	0	0	521	274	
10	0	0	0	0	515	274	
11	0	0	0	0	524	274	
12	0	0	0	0	510	273	
13	0	0	0	0	515	274	
14	0	0	0	0	510	273	
15	0	0	0	0	524	273	
0	0	0	0	0	519	273	
1	0	0	0	0	520	273	
2	0	0	0	0	525	273	
3	0	0	0	0	541	274	
4	0	0	0	0	552	273	
5	0	0	0	0	532	273	
6	0	0	0	0	539	273	
7	0	0	0	0	528	273	
8	0	0	0	0	516	273	
9	0	0	0	0	498	273	
10	0	0	0	0	496	273	
11	0	0	0	0	505	273	
12	0	0	0	0	509	273	
13	0	0	0	0	518	273	
14	0	0	0	0	550	273	
15	0	0	0	0	666	273	
0	0	0	0	0	702	273	
1	0	0	0	0	480	273	
2	0	0	0	0	372	273	
3	0	0	0	0	465	273	
4	0	0	0	0	475	273	
5	0	0	0	0	487	273	
6	0	0	0	0	494	273	
7	0	0	0	0	504	273	
8	0	0	0	0	487	273	
9	0	0	0	0	503	273	
10	0	0	0	0	484	273	
11	0	0	0	0	510	273	
12	0	0	0	0	504	273	
13	0	0	0	0	522	273	
14	0	0	0	0	530	273	
15	0	0	0	0	521	273	
0	0	0	0	0	528	273	
1	0	0	0	0	518	272	
2	0	0	0	0	537	272	
3	0	0	0	0	546	272	
4	0	0	0	0	537	272	
5	0	0	0	0	548	272	
6	0	0	0	0	563	273	
7	0	0	0	0	573	273	
8	0	0	0	0	551	272	
9	0	0	0	0	577	272	
10	0	0	0	0	531	272	
11	0	0	0	0	509	272	
12	0	0	0	0	461	272	
13	0	0	0	0	440	272	
14	0	0	0	0	431	272	
15	0	0	0	0	441	272	
0	0	0	0	0	430	272	
1	0	0	0	0	450	272	
2	0	0	0	0	467	272	
3	0	0	0	0	472	272	
4	0	0	0	0	459	272	
5	0	0	0	0	493	272	
6	0	0	0	0	479	272	
7	0	0	0	0	500	272	
8	0	0	0	0	497	272	
9	0	0	0	0	495	272	
10	0	0	0	0	510	272	
11	0	0	0	0	496	272	
12	0	0	0	0	515	272	
13	0	0	0	0	509	272	
14	0	0	0	0	506	272	
15	0	0	0	0	518	271	
0	0	0	0	0	503	271	
1	0	0	0	0	503	271	
2	0	0	0	0	520	271	
3	0	0	0	0	525	271	
4	0	0	0	0	499	271	
5	0	0	0	0	508	271	
6	0	0	0	0	482	271	
7	0	0	0	0	512	271	
8	0	0	0	0	513	271	
9	0	0	0	0	508	271	
10	0	0	0	0	482	271	
11	0	0	0	0	526	271	
12	0	0	0	0	508	271	
13	0	0	0	0	518	271	
14	0	0	0	0	509	271	
15	0	0	0	0	515	271	
0	0	0	0	0	519	271	
1	0	0	0	0	528	271	
2	0	0	0	0	539	271	
3	0	0	0	0	547	271	
4	0	0	0	0	519	271	
5	0	0	0	0	520	271	
6	0	0	0	0	515	271	
7	0	0	0	0	500	271	
8	0	0	0	0	492	271	
9	0	0	0	0	518	271	
10	0	0	0	0	472	271	
11	0	0	0	0	531	271	
12	0	0	0	0	557	270	
13	0	0	0	0	625	270	
14	0	0	0	0	708	271	
15	0	0	0	0	588	271	
0	0	0	0	0	401	270	
1	0	0	0	0	453	270	
2	0	0	0	0	473	270	
3	0	0	0	0	461	270	
4	0	0	0	0	487	270	
5	0	0	0	0	484	270	
6	0	0	0	0	478	270	
7	0	0	0	0	505	270	
8	0	0	0	0	493	270	
9	0	0	0	0	504	270	
10	0	0	0	0	500	270	
11	0	0	0	0	514	270	
12	0	0	0	0	516	270	
13	0	0	0	0	508	270	
14	0	0	0	0	532	270	
15	0	0	0	0	530	270	
0	0	0	0	0	528	270	
1	0	0	0	0	542	270	
2	0	0	0	0	542	270	
3	0	0	0	0	560	270	
4	0	0	0	0	568	270	
5	0	0	0	0	564	270	
6	0	0	0	0	572	270	
7	0	0	0	0	563	269	
8	0	0	0	0	541	270	
9	0	0	0	0	515	269	
10	0	0	0	0	491	269	
11	0	0	0	0	465	269	
12	0	0	0	0	460	269	
13	0	0	0	0	441	270	
14	0	0	0	0	451	269	
15	0	0	0	0	461	269	
0	0	0	0	0	483	269	
1	0	0	0	0	486	269	
2	0	0	0	0	478	269	
3	0	0	0	0	486	269	
4	0	0	0	0	508	269	
5	0	0	0	0	488	269	
6	0	0	0	0	487	269	
7	0	0	0	0	512	269	
8	0	0	0	0	494	269	
9	0	0	0	0	517	269	
10	0	0	0	0	495	269	
11	0	0	0	0	514	269	
12	0	0	0	0	532	269	
13	0	0	0	0	495	269	
14	0	0	0	0	491	269	
15	0	0	0	0	510	269	
0	0	0	0	0	494	269	
1	0	0	0	0	526	269	
2	0	0	0	0	521	268	
3	0	0	0	0	528	268	
4	0	0	0	0	511	268	
5	0	0	0	0	497	268	
6	0	0	0	0	513	268	
7	0	0	0	0	523	268	
8	0	0	0	0	483	268	
9	0	0	0	0	524	268	
10	0	0	0	0	515	268	
11	0	0	0	0	522	268	
12	0	0	0	0	512	268	
13	0	0	0	0	540	268	
14	0	0	0	0	552	268	
15	0	0	0	0	539	268	
0	0	0	0	0	537	268	
1	0	0	0	0	536	268	
2	0	0	0	0	515	268	
3	0	0	0	0	496	268	
4	0	0	0	0	503	268	
5	0	0	0	0	496	268	
6	0	0	0	0	516	268	
7	0	0	0	0	509	268	
8	0	0	0	0	544	268	
9	0	0	0	0	601	268	
10	0	0	0	0	716	268	
11	0	0	0	0	627	268	
12	0	0	0	0	398	268	
13	0	0	0	0	444	268	
14	0	0	0	0	454	268	
15	0	0	0	0	467	268	
0	0	0	0	0	499	268	
1	0	0	0	0	495	268	
2	0	0	0	0	473	268	
3	0	0	0	0	487	268	
4	0	0	0	0	513	268	
5	0	0	0	0	497	267	
6	0	0	0	0	502	268	
7	0	0	0	0	520	267	
8	0	0	0	0	506	267	
9	0	0	0	0	515	267	
10	0	0	0	0	518	267	
11	0	0	0	0	540	267	
12	0	0	0	0	512	267	
13	0	0	0	0	526	267	
14	0	0	0	0	551	267	
15	0	0	0	0	562	267	
0	0	0	0	0	569	267	
1	0	0	0	0	567	267	
2	0	0	0	0	571	267	
3	0	0	0	0	558	267	
4	0	0	0	0	551	267	
5	0	0	0	0	518	267	
6	0	0	0	0	480	267	
7	0	0	0	0	460	267	
8	0	0	0	0	455	267	
9	0	0	0	0	460	267	
10	0	0	0	0	456	267	
11	0	0	0	0	449	267	
12	0	0	0	0	471	267	
13	0	0	0	0	467	267	
14	0	0	0	0	469	267	
15	0	0	0	0	477	267	
0	0	0	0	0	491	267	
1	0	0	0	0	497	267	
2	0	0	0	0	495	267	
3	0	0	0	0	496	267	
4	0	0	0	0	503	266	
5	0	0	0	0	507	266	
6	0	0	0	0	502	267	
7	0	0	0	0	510	267	
8	0	0	0	0	504	266	
9	0	0	0	0	511	266	
10	0	0	0	0	500	266	
11	0	0	0	0	508	266	
12	0	0	0	0	512	266	
13	0	0	0	0	518	266	
14	0	0	0	0	519	266	
15	0	0	0	0	515	266	
0	0	0	0	0	527	266	
1	0	0	0	0	509	266	
2	0	0	0	0	513	266	
3	0	0	0	0	515	266	
4	0	0	0	0	519	266	
5	0	0	0	0	519	266	
6	0	0	0	0	516	266	
7	0	0	0	0	513	266	
8	0	0	0	0	518	266	
9	0	0	0	0	533	265	
10	0	0	0	0	545	266	
11	0	0	0	0	547	266	
12	0	0	0	0	513	266	
13	0	0	0	0	536	265	
14	0	0	0	0	528	266	
15	0	0	0	0	492	265	
0	0	0	0	0	489	265	
1	0	0	0	0	489	265	
2	0	0	0	0	491	265	
3	0	0	0	0	511	266	
4	0	0	0	0	534	265	
5	0	0	0	0	599	265	
6	0	0	0	0	700	265	
7	0	0	0	0	648	265	
8	0	0	0	0	435	265	
9	0	0	0	0	423	265	
10	0	0	0	0	469	265	
11	0	0	0	0	464	265	
12	0	0	0	0	483	265	
13	0	0	0	0	480	265	
14	0	0	0	0	484	265	
15	0	0	0	0	487	265	
0	0	0	0	0	490	265	
1	0	0	0	0	500	265	
2	0	0	0	0	505	265	
3	0	0	0	0	507	265	
4	0	0	0	0	518	265	
5	0	0	0	0	515	265	
6	0	0	0	0	518	265	
7	0	0	0	0	525	265	
8	0	0	0	0	532	265	
9	0	0	0	0	551	265	
10	0	0	0	0	536	265	
11	0	0	0	0	575	265	
12	0	0	0	0	565	264	
13	0	0	0	0	571	265	
14	0	0	0	0	566	265	
15	0	0	0	0	558	265	
0	0	0	0	0	556	264	
1	0	0	0	0	503	265	
2	0	0	0	0	475	264	
3	0	0	0	0	461	264	
4	0	0	0	0	448	265	
5	0	0	0	0	471	265	
6	0	0	0	0	452	264	
7	0	0	0	0	465	264	
8	0	0	0	0	463	264	
9	0	0	0	0	463	264	
10	0	0	0	0	476	264	
11	0	0	0	0	479	264	
12	0	0	0	0	494	264	
13	0	0	0	0	495	264	
14	0	0	0	0	497	264	
15	0	0	0	0	504	264	
0	0	0	0	0	498	264	
1	0	0	0	0	521	264	
2	0	0	0	0	515	264	
3	0	0	0	0	506	264	
4	0	0	0	0	503	264	
5	0	0	0	0	511	264	
6	0	0	0	0	511	264	
7	0	0	0	0	524	264	
8	0	0	0	0	504	264	
9	0	0	0	0	505	264	
10	0	0	0	0	492	264	
11	0	0	0	0	508	264	
12	0	0	0	0	528	264	
13	0	0	0	0	497	264	
14	0	0	0	0	526	263	
15	0	0	0	0	506	264	
0	0	0	0	0	510	264	
1	0	0	0	0	520	264	
2	0	0	0	0	515	263	
